Temps,Position en z,Acceleration en x avec g,Acceleration en y avec g,Acceleration en z avec g,Angle phi,Angle theta,Angle psi,
0.0,-0.0,-6.817293572131451e-17,-1.367341682590657,9.729141608459434,-3.01941960595019,1.4311699866353498,-4.985801031981232e-17,
0.02,0.0,-6.817293572131451e-17,-1.367341682590657,9.729141608459434,-3.01941960595019,1.4311699866353498,-4.985801031981232e-17,
0.04,0.0,-6.817293572131451e-17,-1.367341682590657,9.729141608459434,-3.01941960595019,1.4311699866353498,-4.985801031981232e-17,
0.06,0.0006113729580661594,-6.817293570821956e-17,-1.3673416823280118,12.815010799336985,-3.01941960595019,1.4311699866353498,-4.985801031981232e-17,
0.08,0.00443205739407769,-6.817293562638452e-17,-1.36734168068665,22.84518870120791,-3.01941960595019,1.4311699866353498,-4.985801031981232e-17,
0.1,0.01566402201995313,-6.817293538580763e-17,-1.3673416758614096,34.03532204232874,-3.01941960595019,1.4311699866353498,-4.985801031981232e-17,
0.12,0.04040191186881593,-6.817293485594803e-17,-1.367341665234038,53.62214912589184,-3.01941960595019,1.4311699866353498,-4.985801031981232e-17,
0.14,0.08580706323648926,-6.817293388341743e-17,-1.367341645728033,70.20518344063902,-3.01941960595019,1.4311699866353498,-4.985801031981232e-17,
0.16,0.15845017161257316,-6.81729323274784e-17,-1.3673416145206296,86.81054748308546,-3.01941960595019,1.4311699866353498,-4.985801031981232e-17,
0.18,0.2647773950016087,-6.817293005006105e-17,-1.3673415688425665,102.76400691342407,-3.01941960595019,1.4311699866353498,-4.985801031981232e-17,
0.2,0.41097605961160527,-6.817292691863935e-17,-1.3673415060357743,118.0622846378739,-3.01941960595019,1.4311699866353498,-4.985801031981232e-17,
0.22,0.6003721614072629,-6.817292286197394e-17,-1.3673414246714082,119.57247050576919,-3.01941960595019,1.4311699866353498,-4.985801031981232e-17,
0.24,0.8335541615322478,-6.817291786746063e-17,-1.3673413244966663,121.03907582344343,-3.01941960595019,1.4311699866353498,-4.985801031981232e-17,
0.26,1.1111033002476165,-6.817291192264986e-17,-1.3673412052618485,122.50820753208288,-3.01941960595019,1.4311699866353498,-4.985801031981232e-17,
0.28,1.433649153163581,-6.817290501405674e-17,-1.3673410666964891,124.21878579451592,-3.01941960595019,1.4311699866353498,-4.985801031981232e-17,
0.3,1.8018698736587468,-6.817289712715599e-17,-1.3673409085092552,125.93335530838722,-3.01941960595019,1.4311699866353498,-4.985801031981232e-17,
0.32,2.216271982511488,-6.817288825109845e-17,-1.3673407304825451,126.77771160105746,-3.01941960595019,1.4311699866353498,-4.985801031981232e-17,
0.34,2.6771891879219814,-6.817287837873644e-17,-1.3673405324729988,127.61914111610916,-3.01941960595019,1.4311699866353498,-4.985801031981232e-17,
0.36,3.184954964167251,-6.817286750292729e-17,-1.3673403143373553,128.4620264111725,-3.01941960595019,1.4311699866353498,-4.985801031981232e-17,
0.38,3.739903362785732,-6.817285561651597e-17,-1.3673400759321075,129.30637128027044,-3.01941960595019,1.4311699866353498,-4.985801031981232e-17,
0.4,4.342369014082624,-6.817284271233504e-17,-1.3673398171134972,130.15217953064445,-3.01941960595019,1.4311699866353498,-4.985801031981232e-17,
0.42,4.992677634208537,-6.8172828783408e-17,-1.3673395377415982,130.95153239585392,-3.01941960595019,1.4311699866353498,-4.985801031981232e-17,
0.44,5.691145956101611,-6.81728138229508e-17,-1.3673392376803422,131.75195157211317,-3.01941960595019,1.4311699866353498,-4.985801031981232e-17,
0.46,6.438091202394054,-6.817279782416884e-17,-1.3673389167934502,132.55376165084866,-3.01941960595019,1.4311699866353498,-4.985801031981232e-17,
0.48,7.23385492196288,-6.817278077974648e-17,-1.3673385749341933,133.47696768051173,-3.01941960595019,1.4311699866353498,-4.985801031981232e-17,
0.5,8.078803192291485,-6.817276268184277e-17,-1.3673382119453057,134.4027076135861,-3.01941960595019,1.4311699866353498,-4.985801031981232e-17,
0.52,8.971729673075608,-9.279680657315714,-3.7251043905414805,127.21092872658875,-3.019743185379791,1.431002428505073,0.0013245768405427797,
0.54,9.910125905435407,-18.591258254805076,-5.500754617719878,121.5110907943343,-3.0207335967140776,1.4304893047137088,0.00538283221331746,
0.56,10.891861122987644,-19.51583456088884,-6.643667372967721,116.3143181788338,-3.022416423830127,1.4296168183602922,0.012287407507936113,
0.58,11.915016390304752,-20.266315535654964,-7.895895662678923,111.60661816126195,-3.024811864227577,1.4283738959440537,0.022131783852829844,
0.6,12.977776553840604,-20.888342364489283,-9.252505642905197,106.84390419039958,-3.027937320674369,1.4267508524526273,0.03500123082245055,
0.62,14.07939018873598,-21.308650818184603,-10.710118211103612,107.41023667097363,-3.0318056692682402,1.424740283017669,0.05096618970180167,
0.64,15.220179314876725,-21.501436010815198,-12.271807390262314,107.97131712524792,-3.0364253622398367,1.422336986343209,0.0700834504107685,
0.66,16.400473367417817,-21.419561477788797,-13.92813397062924,108.47021297185549,-3.0417998380171953,1.4195382131423113,0.09239477772865548,
0.68,17.620573729927028,-21.00553974596465,-15.661749998096,108.78063079174878,-3.047926564470088,1.4163440718068117,0.11792433996329005,
0.7,18.880753117201767,-20.199561389753676,-17.446701848714095,109.026448960094,-3.0547959595291814,1.4127579549862914,0.1466759480620876,
0.72,20.180723528006432,-18.939561367830162,-19.239866929255676,106.39532569996697,-3.062390146886781,1.4087870058795646,0.17862988742604824,
0.74,21.51963018322496,-17.161606244795216,-20.984085555884686,103.67165400244006,-3.07068142038652,1.4044426919721242,0.2137386659828952,
0.76,22.896595431855754,-14.822895455640971,-22.61844963545709,100.83788061230501,-3.079631147114698,1.3997411101906663,0.25192458781148663,
0.78,24.31071331691577,-11.898827146804116,-24.073097269010063,97.9040378927467,-3.089188946068827,1.394703116310799,0.2930782686842736,
0.8,25.761060991443582,-8.384903082744852,-25.27147506270457,94.94246149976516,-3.0992921378490035,1.3893543019696428,0.3370578058098699,
0.82,27.24715852256957,-4.301889631491314,-26.14180966101396,94.24734734119991,-3.1098656255629264,1.3837247556026508,0.38368901952665,
0.84,28.768974145813274,0.30101829142536296,-26.615120386827453,93.59236100335296,-3.1208223384963505,1.377848552270217,0.43276717773454404,
0.86,30.326476300040284,5.354108991414158,-26.620322430134273,92.96530197784439,-3.132063948473287,1.371763180675451,0.4840586185224372,
0.88,31.91962754400657,10.766101998695465,-26.094048619634414,92.38528795228187,3.047611420514461,1.3655089355588192,0.537302262707408,
0.9,33.548384231544894,16.42868012847085,-24.983828879310376,91.87167176026028,3.1282267353979245,1.3591284265603225,0.5922102414655707,
0.92,35.2122264316856,22.189781632062104,-23.266224283317317,89.03703702249716,3.1168152768084143,1.352665465190748,0.6484733784656371,
0.94,36.91015271384452,27.866947908694787,-20.94076742705268,86.26015961884335,3.105595577762403,1.346163644895337,0.7057696347648579,
0.96,38.64115089930203,33.28842793172628,-18.042508035825566,83.58731148764285,3.094693291111988,1.3396652491209975,0.7637712023009267,
0.98,40.40429337965488,38.2883921506878,-14.635625152852228,81.47410082953837,3.0842295676052127,1.3332102524301743,0.8221522711150865,
1.0,42.19873887726762,42.71767021754907,-10.80748701043786,79.47774780153667,3.074317591685999,1.326835507253624,0.8805969759285888,
1.02,44.023883624781604,46.45396176043893,-6.6643645744995395,78.8140507394177,3.065059487463391,1.320574177933727,0.9388071201666746,
1.04,45.87936380236421,49.40726714745101,-2.3208988712769676,78.26838658136235,3.056543837575105,1.3144554443400602,0.9965092951294262,
1.06,47.764817763180375,51.51866251013069,2.110861015635707,77.80770268204607,3.0488438311783757,1.3085044812905728,1.053461213259835,
1.08,49.67988272232515,52.7615748039437,6.524727485092715,77.4175159234809,3.042016102871095,1.3027426679317826,1.1094571395377437,
1.1,51.624195409525676,53.13942122186554,10.826401857149454,77.08223870139648,3.036100285376893,1.2971879777812354,1.1643322592184464,
1.12,53.597795165377484,52.69345562772094,14.941666211916964,78.87846557200612,3.0311200876447,1.2918557031761586,1.2179642775260586,
1.14,55.601209144413765,51.49247367399685,18.81799105312025,81.15437076664487,3.027085759841394,1.286759457276832,1.2702724094374682,
1.16,57.634985398049146,49.58613794069457,22.40733835556497,83.11136816352794,3.023994383027849,1.281911570842668,1.3212201356821762,
1.18,59.69960647946578,47.01582862446326,25.687637124902388,85.06680713343239,3.0218297375495173,1.2773232630681588,1.3708183412226989,
1.2,61.79555471805563,43.84874645377439,28.655120974089787,87.01777792718336,3.0205640159040663,1.2730051501834476,1.4191245090658775,
1.22,63.92289803248385,32181.273335198624,31.318659464894406,-59719.983160811724,3.020159603633655,1.2689676549238011,1.4662411055731686,
1.24,66.08128352674025,-31416.663684986102,33.693733723050656,-1174.3240084063655,3.0205707235154056,1.2652212637039562,1.512313406809925,
1.26,68.27035442829099,-657.1561290186401,35.800116312298,86.15243158198429,3.0217452186708735,1.261776700018078,1.5575263019166121,
1.28,70.48975909549179,26.35815653106464,37.65934603684856,85.80009276337617,3.0236263184234984,1.2586450071486865,1.6021003664201636,
1.3,72.73915166483395,21.0315240659966,39.290942212338614,85.41925084940434,3.0261543103881645,1.2558375377950193,1.6462873809877585,
1.32,75.01847792905356,15.404712003539263,40.71021816750503,86.50813085925982,3.0292681419603813,1.253365871669954,1.6903653537479941,
1.34,77.32798161499589,9.506877418990687,41.92448284920699,87.5999658988159,3.0329069133943554,1.2512417031244003,1.7346333167491206,
1.36,79.66791987652653,3.3225727636738256,42.916409314923015,88.65864978435465,3.037008706716981,1.24947685856801,1.7794110953447673,
1.38,82.03855783633111,-3.121171049549592,43.68229815685726,89.68060845840526,3.0415121484117655,1.2480830595699954,1.8250330548508842,
1.4,84.44016946454647,-9.751338858586962,44.18974494222226,90.66237728312478,3.0463605016155135,1.247071335516073,1.8718356645844034,
1.42,86.8730383181585,-16.523071743231885,44.390450055780555,91.59975586461704,3.0515032077877007,1.2464515189432015,1.9201495122343628,
1.44,89.33745822940006,-23.37577465078951,44.22196282490377,92.48802910556873,3.056897393582446,1.2462316244533118,1.970290537972642,
1.46,91.83373391864673,-30.226745960927442,43.61034445972821,93.32240193281471,3.062509350656852,1.2464170856083716,2.0225502628643235,
1.48,94.36218149884903,-36.96619208469913,42.47475917860712,94.0986301969564,3.0683158842789986,1.2470098314835731,2.07718494404315,
1.5,96.92312883258087,-43.453426712637416,40.734295487105186,94.8138342227206,3.074305362646621,1.2480071947848737,2.134403652476009,
1.52,99.51677256449315,-49.51391209929383,38.31691966817572,94.71326073948826,3.08047823062279,1.2494006571196268,2.1943553153216144,
1.54,102.1431742911678,-54.940965095438926,35.17152687017901,94.53390933484884,3.086846690465475,1.2511744644921803,2.2571148539343713,
1.56,104.80240234467685,-59.53711866466793,31.27653258053537,94.30199946495952,3.093432975670414,1.2533047290675594,2.322673176125181,
1.58,107.49453396389156,-63.10003176526066,26.65691514159002,94.02863008029512,3.1002662262668927,1.255758817035917,2.3909292495424164,
1.6,110.21965467572849,-65.37379284377452,21.396464977712462,93.73010226743492,3.1073781785701353,1.2584939619640434,2.461674628059435,
1.62,112.97785746584566,-66.12272232826284,15.635426225651212,93.42842641787992,3.1147968385354847,1.2614561619979365,2.5345779988479076,
1.64,115.76924097105419,-65.18627438748226,9.579430481481705,93.1498212179016,3.1225380444038917,1.264580338569043,2.6091774279897955,
1.66,118.59390732998743,-62.48117387452183,3.4904461491482897,92.92285036610498,3.130595769312813,1.2677914116318996,2.684877325020178,
1.68,121.45195977343633,-58.021866382372565,-2.3293440052396877,92.77573560858481,3.1389321793911,1.2710063840350676,2.7609514995853544,
1.7,124.34350004786532,-51.93255243900302,-7.561466744204761,92.73305879712979,-2.9578114400229283,1.2741374051518481,2.836553720625471,
1.72,127.26862578768835,-44.446277160300646,-11.900200390590618,92.81227804672682,-3.12710420565286,1.277095613640972,2.910736862180822,
1.74,130.22742796274142,-35.88929255239891,-15.082537032868641,93.0206315172219,-3.1185889683850903,1.2797953924560497,2.982481096479992,
1.76,133.21998851604775,-26.652399892825343,-16.914450397125762,93.3530302808472,-3.1103864183327214,1.2821585613287256,3.0507307675184103,
1.78,136.24637824584084,-17.155755102922065,-17.29008254593739,93.79139461037835,-3.1027448505334143,1.2841180552895473,3.1144389739402603,
1.8,139.3066551301225,-7.799673118645977,-16.196491755443397,94.30588388086893,-3.095929121854255,1.2856205242049088,-2.9221995878522766,
1.82,142.40072684079385,1.0702085635424492,-13.713255350143678,94.14829745253827,-3.0902010180152586,1.2866276466413862,-3.0588088170789782,
1.84,145.52834562398493,9.179770931507889,-10.001255248071178,93.96225161148638,-3.085798309308557,1.2871163212385819,-3.014196593838065,
1.86,148.68924378879413,16.343783398429373,-5.286866357501636,93.72625541340079,-3.082915305473094,1.28707786008664,-2.9772733373750038,
1.88,151.88313772787035,22.463713988133627,0.15713050148755592,93.40186890512834,-3.0816872367782686,1.2865165760280988,-2.9483568760016796,
1.9,155.10967868435824,27.512091246673286,6.0295039079442585,92.70321802755157,-3.0821800612438373,1.2854482084014607,-2.9275230265115906,
1.92,158.3686373985263,31.509978511717684,12.018375829610832,92.8303962367214,-3.0843864687528932,1.2838985554263873,-2.914598148875067,
1.94,161.6599594873997,34.50334840277087,17.81711536446188,92.85303665308999,-3.08822811883366,1.2819025149663859,-2.9091639771105733,
1.96,164.9835816509826,36.53285853145286,23.13722571511664,92.7512560166952,-3.0935631118278852,1.2795036631132117,-2.910572603432407,
1.98,168.33942614072672,37.61520138295477,27.72288613723175,92.54947806161226,-3.10019752854551,1.276754252747377,-2.9179703178518377,
2.0,171.72740158611535,37.74072845535664,31.36797986672816,92.28166589322782,-3.1078997444165,1.2737152431537813,-2.9303302106933256,
2.02,175.14755060599444,36.87407607889365,33.92846435383327,92.75232099349606,-3.1164158785907925,1.2704560847870356,-2.946491286348038,
2.04,178.60005602283545,34.9581369083123,35.33119092942722,93.26269356837187,-3.1254846790329673,1.2670540887605866,-2.9652007121224457,
2.06,182.08509660276232,31.931087623460854,35.57450303331547,93.82169260117401,-3.1348504230499774,1.263593151894912,-2.985157102910731,
2.08,185.6028447584418,27.74861721001403,34.72419466185306,94.4560228742727,2.921240469485242,1.2601617539117105,-3.0050528802169705,
2.1,189.1534698488842,22.404408708379197,32.900080443276565,95.18081225178047,3.12965164220745,1.2568502887780706,-3.023613804235631,
2.12,192.73699598836717,15.945507212780218,30.254611872882172,95.23062958715508,3.120745984621198,1.253747900006884,-3.0396341869366883,
2.14,196.35330147770313,8.484078047617635,26.950939766756743,95.33402002778737,3.112364356074789,1.2509390369160578,-3.052007043851629,
2.16,200.00226913641384,0.19417688913386577,23.138674090878077,95.49705552356012,3.104653590922202,1.2485001023802313,-3.0597475858870586,
2.18,203.6837958094087,-8.685158162791407,18.93875315154411,95.68980175015504,3.0977423618158464,1.2464962338694971,-3.0620119729076816,
2.2,207.39779646875604,-17.851920012652457,14.43161641302631,95.87780611131362,3.091745298732679,1.244978255063489,-3.058113186233588,
2.22,211.14420766665947,-26.96341350189902,9.657167943204664,96.02629066681422,3.086766494578512,1.2439801218471658,-3.0475328080506148,
2.24,214.92299008725035,-35.650305739869076,4.625510216849302,96.10422555872148,3.08290153609105,1.2435169369880605,-3.029929782586683,
2.26,218.73413003931375,-43.529866263927154,-0.6646149117527118,96.08795546191122,3.0802373639170844,1.2435835563166264,-3.0051475629025624,
2.28,222.5776397337061,-50.22458049462147,-6.202267547208766,95.96412633402537,3.078849518995873,1.244153891234467,-2.97322013081044,
2.3,226.45355625585879,-55.384994353889475,-11.940284258674168,95.73165865770252,3.078796607935489,1.245181058841483,-2.9343767958617195,
2.32,230.36208563857974,-58.717510671916244,-17.776479226440372,96.17463155706736,3.0801121938463787,1.2465985685777201,-2.8890449576783013,
2.34,234.30360511746542,-60.01520042854238,-23.54304118472526,96.57626812453246,3.0827947904348063,1.2483227250827837,-2.8378493716635327,
2.36,238.27851240006973,-59.188587277755026,-29.009653339623824,96.94021297440183,3.086797134045549,1.2502564101296936,-2.781605622773452,
2.38,242.28721455239187,-56.28179326234485,-33.89396531994544,97.30719922220146,3.0920163762079986,1.252294031305767,-2.7213072643465384,
2.4,246.33012231012196,-51.481580991587975,-37.892324132677366,97.71955890420188,3.0982872622153894,1.2543273706100373,-2.658104752288842,
2.42,250.40734955461727,-45.11951795341987,-40.71221870600177,96.66676800921682,3.1053805624610686,1.2562520485249222,-2.5932728143551764,
2.44,254.5186953657928,-37.644394515487086,-42.11134251305899,95.66198237764439,3.1130083961078014,1.2579738761936847,-2.528166453560956,
2.46,258.6639330193798,-29.579082947113218,-41.931316892499574,94.78551117283308,3.1208371374537607,1.2594143177485093,-2.4641668690631953,
2.48,262.84281827157315,-21.462369138883577,-40.11489995918573,94.03760559334579,3.1285070260729215,1.2605143575864934,-2.4026208695448994,
2.5,267.05508666203883,-13.79162029964473,-36.71103695023952,93.40317729274753,3.1356562775360635,1.2612363415277723,-2.344778421948012,
2.52,271.3006000918214,-6.97547444048081,-31.867647017549075,93.63112980495875,-2.8775207458266805,1.2615637225521286,-2.291733485326944,
2.54,275.5793525122011,-1.304091962310257,-25.817224173811262,93.94215386265512,-3.1360984008244768,1.261499146116576,-2.2443718666356913,
2.56,279.8913209945721,3.052720712556394,-18.874872244353675,94.26308368723265,-3.13233155674215,1.2610622843699058,-2.2033232076327613,
2.58,284.2364607337529,6.055785563347262,-11.363670969321264,94.55664769270524,-3.130081481119563,1.2602858587077013,-2.168936949604856,
2.6,288.6147083724874,7.799090087817291,-3.6412570973858562,94.79364947312935,-3.1294066900154847,1.259210846547219,-2.141279161561574,
2.62,293.0259841506539,8.397368337800277,3.927630745541996,94.95547970186388,-3.1302812685432624,1.2578834256549958,-2.120133182991663,
2.64,297.4701941690434,7.989860983998524,10.978449879731432,95.0358236754908,-3.132600398509206,1.2563528290213761,-2.105011847374922,
2.66,301.94723277125536,6.714779311657373,17.15939959139753,95.04052497307521,-3.136189992098544,1.2546700610718384,-2.095180810597406,
2.68,306.45698504019373,4.691677568190401,22.146885774546135,94.98557897549911,-3.140819338590694,1.2528872772253614,-2.0896921954392,
2.7,310.99932944907937,2.0161714516052194,25.663920500879588,94.89353563119946,2.8544145622812813,1.2510574954952192,-2.087427729460408,
2.72,315.5742891587247,-1.2328243172344764,27.50088719071919,95.57036671708761,3.131104821849579,1.249234258997285,-2.0871502561594766,
2.74,320.18204195877314,-4.976292784523842,27.536509619846036,96.29267777011543,3.12508061785202,1.2474707172968846,-2.0875628865564053,
2.76,324.8227766795697,-9.113546786344493,25.7600788254322,97.03693102910968,3.119199500297,1.245817338379939,-2.0873760662477108,
2.78,329.4966846095926,-13.485671745181772,22.240533696471765,97.78198276553917,3.113744070048141,1.2443201176338754,-2.0853691685426665,
2.8,334.20395868300517,-17.900192796253634,17.151420938759927,98.53347627693988,3.108965522836605,1.243019088982181,-2.080445632726423,
2.82,338.944503967861,-22.07831203002052,10.749299672026122,97.72152633368671,3.1050733828572468,1.2419457015929705,-2.071687742951541,
2.84,343.7179291857783,-25.687752079536818,3.3664648651245495,96.82040891569855,3.102227191099531,1.2411203516155118,-2.058403212059226,
