Temps,Position en z,Acceleration en x avec g,Acceleration en y avec g,Acceleration en z avec g,Angle phi,Angle theta,Angle psi,
0.0,-0.0,-6.817293572131451e-17,-1.367341682590657,9.729141608459434,-3.01941960595019,1.4311699866353498,-4.985801031981232e-17,
0.02,0.0,-6.817293572131451e-17,-1.367341682590657,9.729141608459434,-3.01941960595019,1.4311699866353498,-4.985801031981232e-17,
0.04,0.0,-6.817293572131451e-17,-1.367341682590657,9.729141608459434,-3.01941960595019,1.4311699866353498,-4.985801031981232e-17,
0.06,0.0006113729580661594,-6.817293570821956e-17,-1.3673416823280118,12.815010799336985,-3.01941960595019,1.4311699866353498,-4.985801031981232e-17,
0.08,0.00443205739407769,-6.817293562638452e-17,-1.36734168068665,22.84518870120791,-3.01941960595019,1.4311699866353498,-4.985801031981232e-17,
0.1,0.01566402201995313,-6.817293538580763e-17,-1.3673416758614096,34.03532204232874,-3.01941960595019,1.4311699866353498,-4.985801031981232e-17,
0.12,0.04040191186881593,-6.817293485594803e-17,-1.367341665234038,53.62214912589184,-3.01941960595019,1.4311699866353498,-4.985801031981232e-17,
0.14,0.08580706323648926,-6.817293388341743e-17,-1.367341645728033,70.20518344063902,-3.01941960595019,1.4311699866353498,-4.985801031981232e-17,
0.16,0.15845017161257316,-6.81729323274784e-17,-1.3673416145206296,86.81054748308546,-3.01941960595019,1.4311699866353498,-4.985801031981232e-17,
0.18,0.2647773950016087,-6.817293005006105e-17,-1.3673415688425665,102.76400691342407,-3.01941960595019,1.4311699866353498,-4.985801031981232e-17,
0.2,0.41097605961160527,-6.817292691863935e-17,-1.3673415060357743,118.0622846378739,-3.01941960595019,1.4311699866353498,-4.985801031981232e-17,
0.22,0.6003721614072629,-6.817292286197394e-17,-1.3673414246714082,119.57247050576919,-3.01941960595019,1.4311699866353498,-4.985801031981232e-17,
0.24,0.8335541615322478,-6.817291786746063e-17,-1.3673413244966663,121.03907582344343,-3.01941960595019,1.4311699866353498,-4.985801031981232e-17,
0.26,1.1111033002476165,-6.817291192264986e-17,-1.3673412052618485,122.50820753208288,-3.01941960595019,1.4311699866353498,-4.985801031981232e-17,
0.28,1.433649153163581,-6.817290501405674e-17,-1.3673410666964891,124.21878579451592,-3.01941960595019,1.4311699866353498,-4.985801031981232e-17,
0.3,1.8018698736587468,-6.817289712715599e-17,-1.3673409085092552,125.93335530838722,-3.01941960595019,1.4311699866353498,-4.985801031981232e-17,
0.32,2.216271982511488,-6.817288825109845e-17,-1.3673407304825451,126.77771160105746,-3.01941960595019,1.4311699866353498,-4.985801031981232e-17,
0.34,2.6771891879219814,-6.817287837873644e-17,-1.3673405324729988,127.61914111610916,-3.01941960595019,1.4311699866353498,-4.985801031981232e-17,
0.36,3.184954964167251,-6.817286750292729e-17,-1.3673403143373553,128.4620264111725,-3.01941960595019,1.4311699866353498,-4.985801031981232e-17,
0.38,3.739903362785732,-6.817285561651597e-17,-1.3673400759321075,129.30637128027044,-3.01941960595019,1.4311699866353498,-4.985801031981232e-17,
0.4,4.342369014082624,-6.817284271233504e-17,-1.3673398171134972,130.15217953064445,-3.01941960595019,1.4311699866353498,-4.985801031981232e-17,
0.42,4.992677634208537,-6.8172828783408e-17,-1.3673395377415982,130.95153239585392,-3.01941960595019,1.4311699866353498,-4.985801031981232e-17,
0.44,5.691145956101611,-6.81728138229508e-17,-1.3673392376803422,131.75195157211317,-3.01941960595019,1.4311699866353498,-4.985801031981232e-17,
0.46,6.438091202394054,-6.817279782416884e-17,-1.3673389167934502,132.55376165084866,-3.01941960595019,1.4311699866353498,-4.985801031981232e-17,
0.48,7.23385492196288,-6.817278077974648e-17,-1.3673385749341933,133.47696768051173,-3.01941960595019,1.4311699866353498,-4.985801031981232e-17,
0.5,8.078803192291485,-6.817276268184277e-17,-1.3673382119453057,134.4027076135861,-3.01941960595019,1.4311699866353498,-4.985801031981232e-17,
0.52,8.972018930953533,-6.81727435501006e-17,-1.367337828220764,128.84928162760093,-3.01941960595019,1.4311699866353498,-4.985801031981232e-17,
0.54,9.911289998658281,-6.817272343190172e-17,-1.3673374247109014,123.23172912164631,-3.01941960595019,1.4311699866353498,-4.985801031981232e-17,
0.56,10.894497076006044,-6.817270237263969e-17,-1.3673370023261753,118.1446185076337,-3.01941960595019,1.4311699866353498,-4.985801031981232e-17,
0.58,11.91935930477284,-0.009443782664245863,-0.019617166737978753,111.89737883688966,-3.019419755018363,1.4311697933353749,1.6653716334371693e-06,
0.6,12.98369065916845,-0.058086601063411285,-0.023688704683030463,107.2971539116304,-3.0194208192375407,1.431168412914646,1.3558626458816589e-05,
0.62,14.086740241520396,-0.12022296114548905,-0.04654527878047568,108.09941127330265,-3.0194237698500843,1.4311645836948328,4.6550912137043305e-05,
0.64,15.228837421040678,-0.18638838020650128,-0.0746202560623659,108.95611299500588,-3.0194296300616514,1.4311569726891253,0.00011212949069147872,
0.66,16.410322001272228,-0.25633076212502554,-0.10843402958367926,109.81283399778061,-3.019439467698505,1.4311441826978053,0.000222337613336757,
0.68,17.631509003455413,-0.32981217067910795,-0.14850808308890198,110.54449634344454,-3.01945438780811,1.4311247591372172,0.0003897167801089042,
0.7,18.8926883562358,-0.40651076748891446,-0.195347854144599,111.27453237398414,-3.0194755237930395,1.43109719841495,0.0006272357624551696,
0.72,20.193591605045786,-0.48594552058234286,-0.24933449176859032,109.18805266613528,-3.019504026052733,1.4310599591891482,0.0009481948569450178,
0.74,21.533385444256027,-0.567279823949863,-0.310694603225963,107.0641919284883,-3.019541045223373,1.4310114804075587,0.0013660717326432743,
0.76,22.911216830649444,-0.6497124880676428,-0.3796305246200039,104.87736877277372,-3.0195877161783717,1.4309501981188164,0.001894377888165588,
0.78,24.326207575347787,-0.7324097857850573,-0.4562542682267049,102.62678741141586,-3.019645141827271,1.4308745623178818,0.002546514834469658,
0.8,25.777465835222404,-0.8144578563383598,-0.5405772480978959,100.37124883756704,-3.0197143760391167,1.4307830547269889,0.003335622238290724,
0.82,27.264549138720465,-0.8949775921357802,-0.6326917761731082,100.38910122354157,-3.019796407277754,1.430674205342034,0.004274436768283928,
0.84,28.78747069702577,-0.9733164532635479,-0.7327180044892617,100.43658153075708,-3.019892145757888,1.4305466036622942,0.005375197049305769,
0.86,30.34624912133204,-1.0485181793504648,-0.8405398361542454,100.48293204383175,-3.020002406245343,1.430398915144141,0.006649503758797308,
0.88,31.94090246858062,-1.1194594744695636,-0.9559191871879882,100.52812040445158,-3.020127888554816,1.4302299001648937,0.008108158327545628,
0.9,33.571448221887486,-1.1849382828376525,-1.0784951294175844,100.57211436577752,-3.0202691570827795,1.4300384336545076,0.009760996185330075,
0.92,35.23742689320637,-1.243552932124849,-1.2074366954134819,98.21018304057861,-3.0204266180471198,1.429823527435119,0.011616696919566911,
0.94,36.93789474827133,-1.2935212452745193,-1.3415948413702372,95.80738522258919,-3.020600492162777,1.4295843593659516,0.013682535577867166,
0.96,38.6718992108249,-1.3334081834964677,-1.47994502962045,93.40033803140273,-3.0207907927384494,1.429320294953866,0.01596419927602694,
0.98,40.438575233572884,-1.3619639620656587,-1.6214179812198082,91.43974196357853,-3.0209973067703935,1.4290309046936787,0.018465640906595,
1.0,42.23714677133907,-1.378073527176833,-1.7648480456755444,89.4828977519566,-3.0212195781808115,1.4287159782879568,0.021188960074072564,
1.02,44.06708093140425,-1.3807151720523292,-1.9091310358413918,88.75046773335855,-3.021456892476437,1.428375536986882,0.024134300432460013,
1.04,45.928090673352706,-1.369109519424485,-2.053139148588304,88.03687636477177,-3.0217082644451803,1.4280098409814133,0.02729979023826796,
1.06,47.81989209821051,-1.3424042325980772,-2.1954234953647562,87.32137994863608,-3.021972425504831,1.4276193983412955,0.03068146939608221,
1.08,49.74220042156611,-1.2998386366994659,-2.3344336553565235,86.60402336942117,-3.0222478130413353,1.4272049726311768,0.03427322762341002,
1.1,51.69472998193134,-1.240834551512637,-2.468543373141398,85.88486058129206,-3.0225325631083817,1.4267675876201449,0.03806676725530975,
1.12,53.67760841068652,-1.1651101696027528,-2.5966045995323896,87.25555210972787,-3.0228245073099487,1.4263085273170562,0.04205160608985749,
1.14,55.69146574617518,-1.0727622493283024,-2.717646500826018,89.07743659919187,-3.0231211731556495,1.4258293291818611,0.04621513991110113,
1.16,57.73695451170485,-0.9637839885271161,-2.8300701691908943,90.56449396130702,-3.0234197851779263,1.4253317804139185,0.0505426771648536,
1.18,59.81465951007767,-0.8382306530081779,-2.932093231982845,92.0457750011058,-3.0237172702123205,1.424817914674675,0.055017467863998484,
1.2,61.92516424471051,-0.696447267695407,-3.0219956973685203,93.52794507370417,-3.0240102689857147,1.424290004793891,0.059620765558167726,
1.22,64.06862134362488,-0.5390493865031434,-3.097451959378043,92.83431263814965,-3.024295155631089,1.4237505521579585,0.06433191532916248,
1.24,66.24474390046574,-0.3669838221849028,-3.156149152743886,92.09480478940732,-3.0245680700507105,1.4232022724424567,0.06912846842004587,
1.26,68.45323553976473,-0.1817923534590186,-3.1965235687413207,91.35386468814194,-3.0248249599512764,1.4226480716674599,0.07398637885528735,
1.28,70.69379908572185,0.014584978113095476,-3.217216019711553,90.61157108455328,-3.0250616314017136,1.4220910164649814,0.07888024780816212,
1.3,72.96613660112286,0.2198861424081182,-3.2170950703769385,89.8679925732552,-3.025273808159156,1.4215343000650524,0.08378360213904656,
1.32,75.27024618821544,0.4315959050082841,-3.1957008667746085,90.62302924127695,-3.025457197846913,1.420981204596849,0.08866920270128927,
1.34,77.60642848069655,0.6470733873688135,-3.1528196720694006,91.41164389705695,-3.025607559848967,1.4204350618328867,0.0935093659369423,
1.36,79.97499046312572,0.8635226620579194,-3.0880878595479158,92.20063884600462,-3.025720782509209,1.4198992125837722,0.09827629329424502,
1.38,82.37623903735613,1.0779692583515326,-3.001443279737147,92.98996748503099,-3.0257929682526634,1.4193769635790134,0.10294241941754595,
1.4,84.81048105262505,1.2872971400697655,-2.8931632506591134,93.77956463140794,-3.0258205244220755,1.418871542113288,0.10748077755566156,
1.42,87.27802333748289,1.4882967507590537,-2.7638880145694706,94.56934699321128,-3.025800258440383,1.4183860490199314,0.11186537767863365,
1.44,89.77917273292965,1.677717272383863,-2.614638933729638,95.35921454064261,-3.025729475640617,1.4179234106173997,0.11607159211886564,
1.46,92.31423612602941,1.8523218597238547,-2.4468305713814287,96.14905278512789,-3.0256060778167466,1.4174863303511243,0.12007654295575855,
1.48,94.88352048318038,2.008944675237199,-2.2622758515072934,96.93873591496966,-3.025428660273471,1.4170772409248507,0.1238594848127371,
1.5,97.48733288213643,2.1445485752634315,-2.063183567682632,97.72813067694874,-3.025196604897374,1.4166982577808858,0.12740217624682373,
1.52,100.1258314212004,2.256216252417741,-1.8520453036106035,97.76289737957956,-3.024910167638131,1.416351134223637,0.13068923746834554,
1.54,102.79902150018943,2.3411629244720773,-1.631794838895632,97.77708133276705,-3.0245705594461296,1.4160372176839833,0.13370849875538698,
1.56,105.50690469896729,2.3970221485362964,-1.4058454844395996,97.78989940989105,-3.0241800103858423,1.4157574118523686,0.1364513023756725,
1.58,108.24948256918171,2.42184075843066,-1.1779040620143655,97.80126722486028,-3.023741815687127,1.4155121451887993,0.13891275387963645,
1.6,111.02675665237575,2.4141000243324977,-0.9519129901475393,97.81111671652616,-3.0232603618163565,1.4153013463137247,0.14109191909444535,
1.62,113.83872849070904,2.3727601365841524,-0.7319841295948999,97.81939936196639,-3.022741129660278,1.415124427264614,0.14299195951597818,
1.64,116.68539962956525,2.2973007242642156,-0.5223236732498097,97.82608816945668,-3.022190672151262,1.4149802755438388,0.14462019937592632,
1.66,119.56677161146784,2.1877568054011087,-0.3271490742476123,97.83117822989269,-3.021616564044,1.4148672557823037,0.1459881185526643,
1.68,122.48284596089701,2.0447502465543614,-0.15059921884830135,97.83468569593016,-3.0210273220614106,1.4147832217108864,0.14711126659661317,
1.7,125.43362415979767,1.869516647269597,0.003360664403015773,97.8366451825145,-3.0204322942677098,1.4147255389662368,0.14800909445252214,
1.72,128.4191076137809,1.6639272610461313,0.13103758452069847,97.83710569619114,-3.019841518300982,1.414691119057686,0.14870470197596922,
1.74,131.43929760925087,1.4305051252966134,0.22911080750130697,97.8361253530976,-3.0192655490020637,1.4146764645878316,0.14922450104787693,
1.76,134.49419526192344,1.1724340278981542,0.2947310179876136,97.83376526551099,-3.0187152569991245,1.4146777255520395,0.14959779597173078,
1.78,137.58380145744204,0.893558338212433,0.325616115767051,97.8300830838147,-3.0182016009270725,1.4146907662447503,0.14985628486946684,
1.8,140.70811678502753,0.598371134286269,0.32014097777802275,97.82512676271892,-3.017735377146622,1.4147112419779777,0.1500334879439959,
1.82,143.86700121035506,0.29197673054377843,0.27740707494732947,97.1093851346612,-3.017326951091665,1.414734684469997,0.15016411110994596,
1.84,147.06016975387556,-0.019898081085390706,0.1973390948700503,96.36997355988568,-3.016985973849477,1.4147565947514098,0.15028335347737531,
1.86,150.2873324255693,-0.33096229854879655,0.08076687268744981,95.62883648865848,-3.016721096535118,1.414772542143065,0.15042616616467142,
1.88,153.54819844043985,-0.6345146113523845,-0.0705553732442463,94.88597673438832,-3.0165396911186644,1.4147782663522324,0.1506264839435005,
1.9,156.84242540453573,-0.9235737266449149,-0.25393520522166146,93.88465305377098,-3.0164475859760476,1.4147697799855552,0.15091644893063486,
1.92,160.16980909466125,-1.191046903057674,-0.46577414945318985,93.84159097852226,-3.016448826659521,1.4147434684895597,0.15132564702895882,
1.94,163.53034017734072,-1.4300212480897498,-0.7016546639061414,93.82884552268231,-3.016545477968798,1.4146961831052318,0.15188038799792034,
1.96,166.924014654246,-1.6338200489759407,-0.9563627670844143,93.81471104634684,-3.016737464273014,1.4146253258849766,0.1526030372299055,
1.98,170.35082761943335,-1.7962182002191254,-1.2239719109670713,93.79913115949282,-3.017022458166414,1.4145289238636543,0.15351141961713025,
2.0,173.81077321271593,-1.9116919116335165,-1.4979593916746476,93.782067483449,-3.017395826308159,1.4144056893015209,0.15461831815886903,
2.02,177.30399584561656,-1.9756992502904709,-1.77142860578704,94.52875559621096,-3.0178506391905313,1.4142550629869866,0.1559310905565585,
2.04,180.83079525672343,-1.9849258832942316,-2.0372572701056786,95.30077928177332,-3.01837774959028,1.4140772377600082,0.1574514268131545,
2.06,184.3914754768009,-1.9373146309595117,-2.288171528461521,96.07178835802247,-3.018965933268814,1.4138731631203638,0.15917524356349264,
2.08,187.98633965987088,-1.83229906660267,-2.5169975597267356,96.84182418649081,-3.0196020949512876,1.4136445289252795,0.1610927325566025,
2.1,191.61569008628703,-1.670968447123999,-2.7168914600720093,97.61095202098132,-3.0202715390077484,1.4133937270310246,0.16318857510153253,
2.12,195.27967649491399,-1.4561247069373453,-2.881459642795791,97.61173320729763,-3.0209583006108653,1.4131237910599685,0.16544232449201474,
2.14,198.97829077637292,-1.1923474129187999,-3.005101387085843,97.58356438168573,-3.0216455327019176,1.4128383149636217,0.16782895449394963,
2.16,202.71151848542553,-0.8860658312866334,-3.0834101342106095,97.55437427491592,-3.0223159426400215,1.4125413500355197,0.17031958103204353,
2.18,206.4793443624667,-0.5453472529970298,-3.113299601825081,97.52425961415364,-3.0229522647882945,1.4122372839302757,0.17288233307552006,
2.2,210.28175242338682,-0.179662300290927,-3.093187613147395,97.49328690178008,-3.0235377555323755,1.4119307054830073,0.1754833460197447,
2.22,214.11872605770338,0.20039982203401835,-3.023138931040329,97.4614842075054,-3.024056696529288,1.4116262594712106,0.178087847355398,
2.24,217.9902481319145,0.5834746110143061,-2.9049506059655923,97.42883689659611,-3.0244948909121976,1.4113284960557455,0.1806612988376493,
2.26,221.8963010946295,0.9578098211747242,-2.742170573164632,97.3952880018117,-3.024840136452411,1.4110417200855627,0.18317055491083883,
2.28,225.83686707972504,1.3116797525095425,-2.5400432328233307,97.36074338339924,-3.025082659365164,1.4107698457102489,0.18558499424233893,
2.3,229.81192800362618,1.6338075152290272,-2.305379344389551,97.32508120869875,-3.0252154925785644,1.4105162617944096,0.1878775801314554,
2.32,233.8216181823555,1.9138191597003913,-2.0464248963471063,98.06028841863336,-3.0252347814239164,1.4102837137552358,0.19002580436288524,
2.34,237.8662302927587,2.1426756785614516,-1.7724545179373774,98.82513284539812,-3.025139999456728,1.4100742075894552,0.1920124678653738,
2.36,241.9460631112118,2.3128592198622817,-1.4933886767316205,99.588696046543,-3.0249340716283317,1.4098889386012807,0.19382627502947827,
2.38,246.06141551876937,2.418658895264672,-1.2195329244221664,100.35084004737999,-3.024623392926602,1.4097282481176725,0.19546221528597957,
2.4,250.2125865051871,2.45640982487823,-0.9611864318293089,101.11146055012522,-3.024217733207701,1.4095916109080935,0.19692171034934117,
2.42,254.39956920846595,2.4245452274654142,-0.7281840043984771,100.32157571207462,-3.023730025284061,1.409477654258686,0.19821251951967733,
2.44,258.62203853229005,2.32372815432314,-0.5296178075393558,99.46516109794322,-3.02317603618516,1.4093842081548629,0.19934840811442,
2.46,262.87965660774455,2.157229053203707,-0.37341420784178725,98.60679488482317,-3.0225739104425875,1.4093083895235685,0.2003485586730966,
2.48,267.17208536006024,1.9307593460821988,-0.2658615903393076,97.74657855035846,-3.0219436010673446,1.4092467172257748,0.20123675028612562,
2.5,271.49898642994384,1.6522981492491677,-0.21130495017689857,96.88461992148339,-3.0213062065861407,1.4091952532190772,0.20204034169153406,
2.52,275.86017450982587,1.3319125840646069,-0.2119285891783253,96.79783389330895,-3.020683235581686,1.4091497646399973,0.2027890985078269,
2.54,280.2556236948208,0.981388226167595,-0.26762080277235684,96.74338500448587,-3.0200958269852745,1.4091059002600983,0.2035139135744522,
2.56,284.68531414651164,0.6137845757983302,-0.37594936993417305,96.6875353414113,-3.019563955679784,1.4090593735037047,0.20424547889872702,
2.58,289.1492253601247,0.24306309609921062,-0.532228538620354,96.63027512316607,-3.019105653761367,1.409006144788098,0.20501296184088635,
2.6,293.6473360472738,-0.11641190235923748,-0.7296687284260199,96.57157086688815,-3.0187362814504577,1.4089425953624826,0.20584274123703916,
2.62,298.17962402911087,-0.4504388688477883,-0.9596184061842415,96.51137386657977,-3.0184678822077613,1.4088656847014895,0.20675725934146572,
2.64,302.7460661448121,-0.7455828100815575,-1.2118919831525663,96.44963219200974,-3.0183086549720293,1.408773083901986,0.20777404224949694,
2.66,307.34663817977923,-0.9897915178713625,-1.4751748413053993,96.38630404475944,-3.01826257281726,1.408663278305982,0.2089049359797503,
2.68,311.98131481719565,-1.1729927053897415,-1.7374938419330492,96.32136997762248,-3.0183291717849254,1.4085356337139219,0.2101555977660379,
2.7,316.65006961563165,-1.287636108931547,-1.9867386810939438,96.25484158848647,-3.0185035263850297,1.4083904220362709,0.2115252724363318,
2.72,321.35302935346584,-1.329162705882354,-2.21128984998205,96.96827330138613,-3.018776420589035,1.408228803860674,0.21300687321036443,
2.74,326.09048107346814,-1.2963321280199043,-2.400536098982985,97.71704542359869,-3.019134713244301,1.4080527675927574,0.21458737173384893,
2.76,330.862716648803,-1.1912658428750296,-2.5453108533631736,98.45766046964192,-3.0195618786693967,1.4078650283136376,0.21624847864017996,
2.78,335.6700196793423,-1.0194598131053345,-2.6384412225644818,99.16670762042504,-3.020038704850484,1.407668889673134,0.2179675946712264,
2.8,340.51266634145384,-0.7896054926667706,-2.6751911971075177,99.87166522737786,-3.02054412225777,1.4074680744087438,0.21971899596751113,
