Temps,Position en z,Acceleration en x avec g,Acceleration en y avec g,Acceleration en z avec g,Angle phi,Angle theta,Angle psi,
0.0,-0.0,-6.817293572131451e-17,-1.367341682590657,9.729141608459434,-3.01941960595019,1.4311699866353498,-4.985801031981232e-17,
0.02,0.0,-6.817293572131451e-17,-1.367341682590657,9.729141608459434,-3.01941960595019,1.4311699866353498,-4.985801031981232e-17,
0.04,0.0,-6.817293572131451e-17,-1.367341682590657,9.729141608459434,-3.01941960595019,1.4311699866353498,-4.985801031981232e-17,
0.06,0.0006113729580661594,-6.817293570821956e-17,-1.3673416823280118,12.815010799336985,-3.01941960595019,1.4311699866353498,-4.985801031981232e-17,
0.08,0.00443205739407769,-6.817293562638452e-17,-1.36734168068665,22.84518870120791,-3.01941960595019,1.4311699866353498,-4.985801031981232e-17,
0.1,0.01566402201995313,-6.817293538580763e-17,-1.3673416758614096,34.03532204232874,-3.01941960595019,1.4311699866353498,-4.985801031981232e-17,
0.12,0.04040191186881593,-6.817293485594803e-17,-1.367341665234038,53.62214912589184,-3.01941960595019,1.4311699866353498,-4.985801031981232e-17,
0.14,0.08580706323648926,-6.817293388341743e-17,-1.367341645728033,70.20518344063902,-3.01941960595019,1.4311699866353498,-4.985801031981232e-17,
0.16,0.15845017161257316,-6.81729323274784e-17,-1.3673416145206296,86.81054748308546,-3.01941960595019,1.4311699866353498,-4.985801031981232e-17,
0.18,0.2647773950016087,-6.817293005006105e-17,-1.3673415688425665,102.76400691342407,-3.01941960595019,1.4311699866353498,-4.985801031981232e-17,
0.2,0.41097605961160527,-6.817292691863935e-17,-1.3673415060357743,118.0622846378739,-3.01941960595019,1.4311699866353498,-4.985801031981232e-17,
0.22,0.6003721614072629,-6.817292286197394e-17,-1.3673414246714082,119.57247050576919,-3.01941960595019,1.4311699866353498,-4.985801031981232e-17,
0.24,0.8335541615322478,-6.817291786746063e-17,-1.3673413244966663,121.03907582344343,-3.01941960595019,1.4311699866353498,-4.985801031981232e-17,
0.26,1.1111033002476165,-6.817291192264986e-17,-1.3673412052618485,122.50820753208288,-3.01941960595019,1.4311699866353498,-4.985801031981232e-17,
0.28,1.433649153163581,-6.817290501405674e-17,-1.3673410666964891,124.21878579451592,-3.01941960595019,1.4311699866353498,-4.985801031981232e-17,
0.3,1.8018698736587468,-6.817289712715599e-17,-1.3673409085092552,125.93335530838722,-3.01941960595019,1.4311699866353498,-4.985801031981232e-17,
0.32,2.216271982511488,-6.817288825109845e-17,-1.3673407304825451,126.77771160105746,-3.01941960595019,1.4311699866353498,-4.985801031981232e-17,
0.34,2.6771891879219814,-6.817287837873644e-17,-1.3673405324729988,127.61914111610916,-3.01941960595019,1.4311699866353498,-4.985801031981232e-17,
0.36,3.184954964167251,-6.817286750292729e-17,-1.3673403143373553,128.4620264111725,-3.01941960595019,1.4311699866353498,-4.985801031981232e-17,
0.38,3.739903362785732,-6.817285561651597e-17,-1.3673400759321075,129.30637128027044,-3.01941960595019,1.4311699866353498,-4.985801031981232e-17,
0.4,4.342369014082624,-6.817284271233504e-17,-1.3673398171134972,130.15217953064445,-3.01941960595019,1.4311699866353498,-4.985801031981232e-17,
0.42,4.992677634208537,-6.8172828783408e-17,-1.3673395377415982,130.95153239585392,-3.01941960595019,1.4311699866353498,-4.985801031981232e-17,
0.44,5.691145956101611,-6.81728138229508e-17,-1.3673392376803422,131.75195157211317,-3.01941960595019,1.4311699866353498,-4.985801031981232e-17,
0.46,6.438091202394054,-6.817279782416884e-17,-1.3673389167934502,132.55376165084866,-3.01941960595019,1.4311699866353498,-4.985801031981232e-17,
0.48,7.23385492196288,-6.817278077974648e-17,-1.3673385749341933,133.47696768051173,-3.01941960595019,1.4311699866353498,-4.985801031981232e-17,
0.5,8.078453206825452,-0.007791235916096912,-0.016687198698875694,132.82173832317164,-3.019419729054434,1.4311698270037176,1.3753065341763726e-06,
0.52,8.970609052875883,-0.048491385133975315,-0.01940903888697282,127.22555764537819,-3.0194206170674396,1.4311686752585624,1.1298327770382051e-05,
0.54,9.908096307020557,-0.10177177698048037,-0.038192859179539275,121.57873493026223,-3.019423104815157,1.4311654475425044,3.9107746148851564e-05,
0.56,10.888784521517938,-0.15967517687606486,-0.061356756126146494,116.46222370804239,-3.0194280914925034,1.4311589741151893,9.488324260565881e-05,
0.58,11.910754507155879,-0.22166103251218722,-0.08928154504753905,111.88218579492123,-3.0194365294790613,1.4311480122614242,0.00018933493358691374,
0.6,12.972192649512227,-0.2872444854242091,-0.12231702396301769,107.29928942547144,-3.0194494138912984,1.4311312580159679,0.0003337030537208668,
0.62,14.072351706398448,-0.3560160973618361,-0.16090211638406499,108.10166594502012,-3.019467773210265,1.4311073562833596,0.000539671491493788,
0.64,15.21156099471211,-0.42797988332586084,-0.2056042894129798,108.95847416795377,-3.0194926662456507,1.4310749024315652,0.0008193548646165381,
0.66,16.390160224846525,-0.5029017634883636,-0.25690186237046897,109.81529177765314,-3.019525175273471,1.4310324485314514,0.0011852456241325982,
0.68,17.608464284293994,-0.5803742090402447,-0.3152381616478669,110.54703325785641,-3.0195663964001946,1.4309785128577135,0.0016501331295084255,
0.7,18.866762925570022,-0.6598862648985795,-0.3810205035422125,111.27712289069756,-3.0196174283059856,1.430911591116928,0.0022270079262308676,
0.72,20.164787488826075,-0.7407206403703921,-0.45443023280438605,109.19066189828315,-3.019679358021657,1.4308301711766254,0.0029289359507116246,
0.74,21.501704439181974,-0.8217023542176698,-0.5354348291675807,107.06677553696129,-3.0197532400241105,1.4307327563923538,0.0037688586082534913,
0.76,22.876660470874274,-0.901813313745949,-0.6240322543150235,104.87987460630995,-3.0198400780454224,1.4306178850936284,0.004759426056979324,
0.78,24.28877710128259,-0.9800443643451301,-0.7201162415903767,102.62915628105412,-3.0199408073920364,1.4304841490729037,0.005912839190473203,
0.8,25.737162163984753,-1.0553180562381252,-0.8234676615516259,100.37341570452824,-3.020056276593721,1.4303302126293294,0.007240686974888049,
0.82,27.22137280627779,-1.1266359671787542,-0.9340288809181065,100.3909976231576,-3.0201872302464747,1.43015482949294,0.008753802283482454,
0.84,28.741421793311655,-1.1932933386426763,-1.0517841020993115,100.43813742070543,-3.0203342960304376,1.4299568529871234,0.010462176602064173,
0.86,30.297327249878713,-1.2542119938600569,-1.1763843755263388,100.48407684714707,-3.02049796629047,1.4297352527047407,0.012374818908255954,
0.88,31.88910670744716,-1.3081437167549073,-1.3073425919846657,100.52878543005637,-3.0206785771233404,1.4294891337798226,0.014499592602154592,
0.9,33.51677708591707,-1.3537890950481801,-1.4440377923537437,100.5722355203282,-3.0208762867086705,1.4292177563498671,0.01684305128184731,
0.92,35.179878355271086,-1.3896693017540478,-1.5852637577867112,98.20970286023574,-3.0210910516413034,1.4289205574000028,0.019410254348574255,
0.94,36.87746627606738,-1.41395785646764,-1.7294828614082314,95.80625603869133,-3.021322599479291,1.4285971791124168,0.022204526217832615,
0.96,38.6085877593616,-1.4252980340052697,-1.8753977227890806,93.39852623251564,-3.0215704080920016,1.4282474876723115,0.02522729826068912,
0.98,40.37237722725061,-1.422595336842517,-2.021705812030911,91.43723102589566,-3.021833688876107,1.427871586711432,0.028477997246577912,
1.0,42.16805808782769,-1.4049495975710382,-2.1670295952103427,89.47969069728339,-3.022111372816624,1.4274698269401616,0.03195396686934513,
1.02,43.995096857746496,-1.3716062478916808,-2.3101103992463945,88.74658933525023,-3.022402098729061,1.4270428134077788,0.03565040969290798,
1.04,45.85320585915354,-1.3220971172238316,-2.449689610194484,88.03237446158656,-3.0227042049629054,1.4265914074586266,0.03956037521379917,
1.06,47.74210055286354,-1.2559264644491481,-2.584160699819153,87.31632546777374,-3.023015721918326,1.4261167299549824,0.0436747363163019,
1.08,49.66149551714561,-1.17274792770695,-2.7118490493254566,86.59851015322702,-3.0233343678881415,1.4256201626755092,0.047982180628710444,
1.1,51.611104461384755,-1.0724539846060288,-2.8310444093799343,85.87900431564921,-3.023657549599591,1.4251033463165999,0.052469230161162,
1.12,53.59105429929758,-0.9552627093328211,-2.940631315135837,87.24948914488884,-3.0239823678159223,1.4245681736517386,0.057120301920242415,
1.14,55.60197423432851,-0.8217491021851794,-3.0397051163296416,89.07132134666757,-3.024305625873669,1.4240167765982275,0.061917821695592574,
1.16,57.6445159535835,-0.6724301336800471,-3.1266767016920687,90.55849411974152,-3.0246238409196082,1.423451516052046,0.06684231188939231,
1.18,59.719263452871154,-0.5079446101838275,-3.199810226112739,92.04006690713736,-3.024933261685535,1.4228749714492974,0.07187247882841544,
1.2,61.82679944877783,-0.32924512075651147,-3.2574989075545755,93.52270872320123,-3.025229893862753,1.4222899261183983,0.07698533423800334,
1.22,63.967275939812495,-0.137607018692815,-3.2975496447946435,92.82972497901794,-3.0255095352338754,1.4216993488210579,0.08215634634047843,
1.24,66.14040556722016,0.06528170345709122,-3.317889975019886,92.09103307861174,-3.0257678268547585,1.4211063702455395,0.08735962863466931,
1.26,68.34589156462249,0.2772165936993144,-3.3173275648874108,91.3510609966694,-3.026000312716594,1.4205142509608395,0.09256820096757878,
1.28,70.58343643048354,0.4956567665589123,-3.2949429253497557,90.60986593648136,-3.0262025071952605,1.4199263444800512,0.09775429072296736,
1.3,72.85274197270377,0.7177992445182534,-3.2501088422923945,89.86748910530856,-3.0263699706981257,1.4193460567492342,0.10288966220870736,
1.32,75.15380601570496,0.9406942983331948,-3.1829267819432885,90.62379893620795,-3.026498390641072,1.4187768031261072,0.10794596608804735,
1.34,77.48692889200318,1.161403535711956,-3.0937618641170026,91.41372320681636,-3.026583661300536,1.4182219657398365,0.11289508619298771,
1.36,79.8524173632628,1.376862558254165,-2.9828591498463752,92.20402615211627,-3.0266219726859425,1.4176848495689895,0.11770949371358616,
1.38,82.25057819351495,1.5839062538108244,-2.850802176141266,92.99462236108505,-3.0266099056904077,1.4171686367070577,0.12236261454249224,
1.4,84.68171818291867,1.7793291841018197,-2.6985403226878,93.78540885443643,-3.0265445303365706,1.4166763395231772,0.1268292047341783,
1.42,87.14614420218099,1.9599382252050068,-2.527401493322279,94.57626735120645,-3.0264235052641446,1.4162107533797517,0.1310857287731834,
1.44,89.64416322685447,2.122606479984125,-2.3390985753288738,95.36706740481202,-3.026245176376831,1.4157744096326386,0.13511073483324568,
1.46,92.17608237064867,2.2643276152476917,-2.1357289991240305,96.15767031123877,-3.0260086723176682,1.4153695297016444,0.13888522073536821,
1.48,94.74220891682137,2.382269624717877,-1.919766806814385,96.94793363013042,-3.025713994215268,1.4149979810552216,0.14239298390245098,
1.5,97.34285034666091,2.4738271765640696,-1.6940467157624297,97.73771610603234,-3.0253620969461585,1.4146612360021105,0.1456209482754539,
1.52,99.97816529058028,2.5365973105617234,-1.4616590585306313,97.7726789415297,-3.0249549600797554,1.4143603335335126,0.1485594664531991,
1.54,102.64815980086166,2.5683928407630225,-1.2260781928829272,97.78687757808227,-3.0244956471432296,1.4140958436858169,0.15120260181826164,
1.56,105.35283617218148,2.5675485809844782,-0.9911562028394122,97.79954833588198,-3.023988342672138,1.413867839658102,0.1535483493690859,
1.58,108.09219672118356,2.532884933122726,-0.7609417417120152,97.81063412104338,-3.023438366295904,1.413675877837021,0.15559879421381978,
1.6,110.86624379232157,2.4637133351018976,-0.5396111361433639,97.82010036090172,-3.0228521622873803,1.4135189860190784,0.15736020600730138,
1.62,113.67497975517506,2.359870955091257,-0.33139172490534835,97.82793608807609,-3.0222372620797078,1.4133956606772176,0.15884306333352344,
1.64,116.518406992752,2.2217525027221576,-0.140477896852566,97.83415344146051,-3.0216022176428954,1.4133038740285582,0.16006200284219438,
1.66,119.39652788047324,2.050338474864356,0.029058888200606092,97.83878551288394,-3.0209565041608406,1.4132410915230051,0.1610356890805329,
1.68,122.30934475573487,1.8472197217545858,0.17336460799992126,97.84188260647417,-3.020310391132792,1.413204300202389,0.16178660229242117,
1.7,125.25685987816317,1.6146178126402526,0.28889995376144206,97.84350710416794,-3.019674781842807,1.4131900481754818,0.16234074297988366,
1.72,128.23907538090504,1.355400149720353,0.37253834943808783,97.843727273167,-3.0190610220912397,1.413194495215878,0.1627272537242973,
1.74,131.2559932135306,1.0730881582095853,0.42166245639313826,97.84261046660343,-3.018480680149886,1.4132134742187925,0.16297796062920963,
1.76,134.30761507735517,0.7718562250782748,0.4342567107682567,97.84021627368368,-3.0179453010635355,1.4132425629526966,0.16312683874992984,
1.78,137.3939423542153,0.4565184393515056,0.4089932950789944,97.83659022547226,-3.01746613964094,1.4132771652177252,0.16320940798831507,
1.8,140.51497602994127,0.1324996856637265,0.34530885154327734,97.83175867288253,-3.0170538777121854,1.4133126001823018,0.1632620681196955,
1.82,143.67057638982746,-0.19421263848142842,0.2434598457560499,97.11618106908963,-3.0167183312039314,1.4133441984168293,0.1633213834419911,
1.84,146.86045869111896,-0.5170768389941871,0.1046119439407317,96.37693866356959,-3.0164681518456353,1.4133674032303567,0.1634233266923092,
1.86,150.08433306348164,-0.8291309234873584,-0.06911132774533849,95.63594101989409,-3.0163105394011516,1.4133778747885728,0.16360249745912078,
1.88,153.341908723427,-1.1231709383014672,-0.2746426031488998,94.89315864062436,-3.016250973636473,1.4133715938254605,0.1638913379683543,
1.9,156.63284317419402,-1.3919094927488944,-0.5079824326257629,93.89182410734811,-3.0162929746292226,1.4133449620789404,0.16431936645445122,
1.92,159.95693194807598,-1.6281960208123798,-0.764281572194965,93.84864667858211,-3.016437902285421,1.4132948961902316,0.16491245086782313,
1.94,163.31416531962384,-1.8253517176088652,-1.0379631553359876,93.83567731364026,-3.016684811167667,1.413218910242698,0.16569215741757726,
1.96,166.70453880273,-1.9771997236392218,-1.3227485339991336,93.8212189679833,-3.017030355074244,1.4131151868309948,0.1666751757392564,
1.98,170.12804692120164,-2.078324187527824,-1.611785336883154,93.80523702525261,-3.0174687508861906,1.4129826336392024,0.1678728427116462,
2.0,173.5846831763525,-2.1243388933054264,-1.897800519077337,93.78772662929502,-3.0179918090526505,1.4128209225749626,0.16929078759869956,
2.02,177.07459125089892,-2.1121690901094086,-2.1733751231877965,94.53396614295801,-3.0185890350991524,1.4126305088459938,0.17092871989073816,
2.04,180.59807007882264,-2.0402636204236764,-2.4311063743379187,95.30558716351653,-3.0192478037060693,1.4124126277865403,0.17278037919483286,
2.06,184.15542286618754,-1.9085794632866797,-2.6636887054460314,96.07628701646072,-3.0199535966188513,1.4121692711490925,0.17483363712829475,
2.08,187.74695194356295,-1.7187799880869115,-2.8642069516643156,96.8461496187234,-3.020690304911693,1.4119031414603,0.1770707651121059,
2.1,191.3729587898138,-1.474335368022103,-3.0263852078944624,97.61527296117556,-3.0214405920968708,1.411617584127704,0.1794688742575555,
2.12,195.03359242836476,-1.1805040401023938,-3.1447056964775038,97.61623686210301,-3.022186311267774,1.4113164983860151,0.18200052274057266,
2.14,198.7288441440158,-0.8443205113073422,-3.2147701132737008,97.58843958278152,-3.02290896956407,1.4110042285922983,0.18463448226906282,
2.16,202.4586989721409,-0.474542911076123,-3.2336911542089375,97.55979416566556,-3.0235902292401104,1.4106854368674804,0.1873366603537809,
2.18,206.22314123508642,-0.08133669021551393,-3.200167769875702,97.53036483499214,-3.024212429300336,1.4103649617062584,0.1900711453028881,
2.2,210.02215464563315,0.3240522379680361,-3.114617340267576,97.50017169966513,-3.024759112364571,1.4100476672366893,0.192801339259603,
2.22,213.85572241528706,0.7296636008186617,-2.9792527395068613,97.46918720750992,-3.0252155408818964,1.409738288036612,0.19549114187290875,
2.24,217.72382736380183,1.1232296218988251,-2.7980896434978955,97.43733776220812,-3.0255691861742107,1.409441274819752,0.19810614297982598,
2.26,221.6264520260567,1.4926046113978078,-2.5768781906994573,97.40451052222745,-3.025810173551082,1.4091606465279063,0.2006147799999052,
2.28,225.56357875226468,1.8261978446244012,-2.3229569628192763,97.37056471871253,-3.0259316669468546,1.4088998543764608,0.2029894149427595,
2.3,229.53518979751837,2.113390954344666,-2.0450314102990337,97.33534622880732,-3.025930177227656,1.40866166318932,0.20520728715857323,
2.32,233.54141988060542,2.3449761714208104,-1.7529451921702508,98.07082773344504,-3.0258057779765024,1.4084480552617895,0.2072512988580084,
2.34,237.58256212789593,2.5135319560527587,-1.4572046469628948,98.8357816970402,-3.0255622132713973,1.408260161838424,0.20911059187840006,
2.36,241.65891583852013,2.6135198814842218,-1.168554383644954,99.59931121898182,-3.0252068978706332,1.4080982234891242,0.21078090251853104,
2.38,245.77078046823905,2.6415219403619554,-0.8976657532592693,100.36131364667666,-3.024750799993219,1.4079615817787794,0.21226467563102086,
2.4,249.91845560800684,2.5964119524693627,-0.654719772691721,101.12172844201646,-3.0242082006197704,1.4078487038044902,0.21357092607191017,
2.42,254.10193508336897,2.479325760844227,-0.44896393484454045,100.33161883681494,-3.0235963301359505,1.4077572392625473,0.21471485084784483,
2.44,258.32089454534673,2.293753355457286,-0.28841588480500757,99.47500069489409,-3.0229348857042124,1.4076841083137497,0.21571720713829237,
2.46,262.57499681757406,2.045831847190533,-0.17945489274746712,98.61648323857331,-3.0222454256548175,1.407625621544642,0.21660344860505323,
2.48,266.86390443605694,1.7440643105799045,-0.12643479526528312,97.75618478595072,-3.0215506634630884,1.407577626982361,0.21740265893244085,
2.5,271.1872795507328,1.3990562970044675,-0.13145851231777647,96.89421410839742,-3.0208736860273624,1.4075356781350368,0.21814632916044158,
2.52,275.54493720478786,1.023241575402703,-0.19425298227724683,96.80747250305573,-3.0202371242995016,1.407495216492051,0.21886702852673917,
2.54,279.93685167415117,0.6304102718096756,-0.31214616728516326,96.75309965082808,-3.0196623108682696,1.4074517608009989,0.2195970254288542,
2.56,284.36300316802414,0.2352053450872249,-0.48014080070738685,96.6973262686675,-3.0191684567801826,1.4074010949386149,0.22036691881143702,
2.58,288.82337109821736,-0.14733044759101432,-0.6910771584519029,96.640111581742,-3.01877188178559,1.4073394466883304,0.22120433474666257,
2.6,293.3179339679962,-0.5023298115892174,-0.9358820705157138,96.58139785900842,-3.0184853342430005,1.4072636494750779,0.22213274389763255,
2.62,297.8466692768824,-0.8157243174763565,-1.2039044688399203,96.52112406913818,-3.018317435268599,1.407171279399461,0.22317045311569253,
2.64,302.4095534459072,-1.0748833220752603,-1.483328780890132,96.45924094852393,-3.0182722779431836,1.4070607606839367,0.22432981896853552,
2.66,307.00656176704456,-1.2692357614930385,-1.7616550097895312,96.39572472695109,-3.0183492065913984,1.406931433786515,0.22561672340647104,
2.68,311.63766837961225,-1.3908374315832877,-2.0262314711759086,96.33058687196377,-3.0185427935382307,1.4067835819253112,0.22703034216123888,
2.7,316.3028462753045,-1.4348441683432593,-2.2648228046491496,96.26387782362131,-3.018843021696366,1.4066184135474293,0.22856322495277795,
2.72,321.0022216262228,-1.3998754674282137,-2.4662737535978123,96.9771925197003,-3.019235672200578,1.4064380001741634,0.2302016942451073,
2.74,325.73608085527997,-1.288182772629632,-2.6210175848454718,97.72594613428718,-3.019702905156548,1.4062451714873323,0.23192655282491026,
2.76,330.50471572719385,-1.1055188647800893,-2.721482336255491,98.4689609043139,-3.0202240041662667,1.4060433728999453,0.23371406711312057,
2.78,335.30840985607387,-0.8609736724865544,-2.762602142725298,99.17840446336434,-3.02077625764485,1.405836490959564,0.23553719190341946,
