Temps,Position en z,Acceleration en x avec g,Acceleration en y avec g,Acceleration en z avec g,Angle phi,Angle theta,Angle psi,
0.0,-0.0,-6.817293572131451e-17,-1.367341682590657,9.729141608459434,-3.01941960595019,1.4311699866353498,-4.985801031981232e-17,
0.02,0.0,-6.817293572131451e-17,-1.367341682590657,9.729141608459434,-3.01941960595019,1.4311699866353498,-4.985801031981232e-17,
0.04,0.0,-6.817293572131451e-17,-1.367341682590657,9.729141608459434,-3.01941960595019,1.4311699866353498,-4.985801031981232e-17,
0.06,0.0006113729580661594,-6.817293570821956e-17,-1.3673416823280118,12.815010799336985,-3.01941960595019,1.4311699866353498,-4.985801031981232e-17,
0.08,0.00443205739407769,-6.817293562638452e-17,-1.36734168068665,22.84518870120791,-3.01941960595019,1.4311699866353498,-4.985801031981232e-17,
0.1,0.01566402201995313,-6.817293538580763e-17,-1.3673416758614096,34.03532204232874,-3.01941960595019,1.4311699866353498,-4.985801031981232e-17,
0.12,0.04040191186881593,-6.817293485594803e-17,-1.367341665234038,53.62214912589184,-3.01941960595019,1.4311699866353498,-4.985801031981232e-17,
0.14,0.08580706323648926,-6.817293388341743e-17,-1.367341645728033,70.20518344063902,-3.01941960595019,1.4311699866353498,-4.985801031981232e-17,
0.16,0.15845017161257316,-6.81729323274784e-17,-1.3673416145206296,86.81054748308546,-3.01941960595019,1.4311699866353498,-4.985801031981232e-17,
0.18,0.2647773950016087,-6.817293005006105e-17,-1.3673415688425665,102.76400691342407,-3.01941960595019,1.4311699866353498,-4.985801031981232e-17,
0.2,0.41097605961160527,-6.817292691863935e-17,-1.3673415060357743,118.0622846378739,-3.01941960595019,1.4311699866353498,-4.985801031981232e-17,
0.22,0.6003721614072629,-6.817292286197394e-17,-1.3673414246714082,119.57247050576919,-3.01941960595019,1.4311699866353498,-4.985801031981232e-17,
0.24,0.8335541615322478,-6.817291786746063e-17,-1.3673413244966663,121.03907582344343,-3.01941960595019,1.4311699866353498,-4.985801031981232e-17,
0.26,1.1111033002476165,-6.817291192264986e-17,-1.3673412052618485,122.50820753208288,-3.01941960595019,1.4311699866353498,-4.985801031981232e-17,
0.28,1.433649153163581,-6.817290501405674e-17,-1.3673410666964891,124.21878579451592,-3.01941960595019,1.4311699866353498,-4.985801031981232e-17,
0.3,1.8018698736587468,-6.817289712715599e-17,-1.3673409085092552,125.93335530838722,-3.01941960595019,1.4311699866353498,-4.985801031981232e-17,
0.32,2.216271982511488,-6.817288825109845e-17,-1.3673407304825451,126.77771160105746,-3.01941960595019,1.4311699866353498,-4.985801031981232e-17,
0.34,2.6771891879219814,-6.817287837873644e-17,-1.3673405324729988,127.61914111610916,-3.01941960595019,1.4311699866353498,-4.985801031981232e-17,
0.36,3.184954964167251,-6.817286750292729e-17,-1.3673403143373553,128.4620264111725,-3.01941960595019,1.4311699866353498,-4.985801031981232e-17,
0.38,3.739903362785732,-6.817285561651597e-17,-1.3673400759321075,129.30637128027044,-3.01941960595019,1.4311699866353498,-4.985801031981232e-17,
0.4,4.342369014082624,-6.817284271233504e-17,-1.3673398171134972,130.15217953064445,-3.01941960595019,1.4311699866353498,-4.985801031981232e-17,
0.42,4.992677634208537,-6.8172828783408e-17,-1.3673395377415982,130.95153239585392,-3.01941960595019,1.4311699866353498,-4.985801031981232e-17,
0.44,5.691145956101611,-6.81728138229508e-17,-1.3673392376803422,131.75195157211317,-3.01941960595019,1.4311699866353498,-4.985801031981232e-17,
0.46,6.438091202394054,-6.817279782416884e-17,-1.3673389167934502,132.55376165084866,-3.01941960595019,1.4311699866353498,-4.985801031981232e-17,
0.48,7.23385492196288,-6.817278077974648e-17,-1.3673385749341933,133.47696768051173,-3.01941960595019,1.4311699866353498,-4.985801031981232e-17,
0.5,8.078803192291485,-6.817276268184277e-17,-1.3673382119453057,134.4027076135861,-3.01941960595019,1.4311699866353498,-4.985801031981232e-17,
0.52,8.972018930953533,-6.81727435501006e-17,-1.367337828220764,128.84928162760093,-3.01941960595019,1.4311699866353498,-4.985801031981232e-17,
0.54,9.911289998658281,-6.817272343190172e-17,-1.3673374247109014,123.23172912164631,-3.01941960595019,1.4311699866353498,-4.985801031981232e-17,
0.56,10.894497076006044,-6.817270237263969e-17,-1.3673370023261753,118.1446185076337,-3.01941960595019,1.4311699866353498,-4.985801031981232e-17,
0.58,11.919732132197364,-6.817268041318253e-17,-1.3673365618862736,113.59406752249139,-3.01941960595019,1.4311699866353498,-4.985801031981232e-17,
0.6,12.98519272975286,-6.817265759213657e-17,-1.367336104165522,109.04065083241645,-3.01941960595019,1.4311699866353498,-4.985801031981232e-17,
0.62,14.089799356533483,-5.642456823280584,-2.3212795095859926,108.10396468283822,-3.019616239313129,1.4310684671916671,0.0008022664939652805,
0.64,15.233539381994357,-11.271784506626013,-3.4805633580132356,108.92751109881269,-3.0202157666461367,1.4307584336604546,0.0032534479517901255,
0.66,16.41674962574533,-11.832011399421663,-4.259410254344985,109.75512155645812,-3.021231292865739,1.4302322801956007,0.007415692370506603,
0.68,17.639744296255575,-12.29066211060775,-5.094978696704886,110.44086451821192,-3.0226723122863084,1.429484198390877,0.013337806583024369,
0.7,18.90281092530629,-12.683693460499669,-5.991830338345694,111.10661024204744,-3.0245463483131743,1.428509336139023,0.02106198348304611,
0.72,20.20567717936812,-12.988767924634658,-6.945822780817205,108.93615205877596,-3.0268585721302284,1.4273039941200245,0.030622342173632307,
0.74,21.547504451364727,-13.176924203877482,-7.949157369610845,106.70768272719837,-3.029611219333447,1.4258659221631533,0.042042672390368525,
0.76,22.927432849892416,-13.224096014493021,-8.994141959734748,104.39513262091745,-3.032803191460568,1.4241945125209732,0.0553350026561832,
0.78,24.3445757964694,-13.10781331283835,-10.070905004129322,101.99775914669168,-3.036429713851092,1.4222909534477084,0.07049847422808347,
0.8,25.7980315113698,-12.806415986783042,-11.167116603964276,99.57503914771185,-3.0404819977918933,1.4201583693461568,0.08751830588966258,
0.82,27.287345287535132,-12.30176738304173,-12.271416121083657,99.40666000988587,-3.0449469631601,1.4178019163543707,0.10636508359606844,
0.84,28.81251545562354,-11.581229335059737,-13.371303107435914,99.25084129426111,-3.049807094164433,1.415228793204858,0.12699469026894344,
0.86,30.37354352913721,-10.630574073692745,-14.44845020001158,99.07952915885609,-3.055040172347586,1.4124483060148516,0.14934774360154401,
0.88,31.970428129429813,-9.434730558583226,-15.479880657959818,98.89622006120209,-3.0606188699065804,1.4094719984370139,0.17334844062178192,
0.9,33.60316477151152,-7.976643521122917,-16.437224832518126,98.70540333481296,-3.06651012202687,1.4063138924609315,0.1989024297063728,
0.92,35.2712712359521,-6.259679602063166,-17.29324067951271,96.10751001400267,-3.0726751222753723,1.4029904128816282,0.2258970672850401,
0.94,36.97378095583868,-4.3014696378818975,-18.01734772945496,93.47320053582177,-3.0790696976877867,1.3995201365340117,0.2542029508934145,
0.96,38.70971709948878,-2.1220099403235055,-18.58333387740855,90.84503414558509,-3.085644564727733,1.395923617448224,0.2836747630905536,
0.98,40.478188565936385,0.24880517236618438,-18.96842022880591,88.67974238431654,-3.092345784752479,1.3922231312628413,0.3141526761883636,
1.0,42.2783914926409,2.772618564624586,-19.153596651358075,86.5404803108099,-3.099115387666522,1.388442361365756,0.3454641737326998,
1.02,44.10976234316445,5.404293799854489,-19.1263364688255,85.65332664530278,-3.105892136024344,1.3846060471739698,0.3774261700518364,
1.04,45.97198042750066,8.093285817432031,-18.87994343721691,84.81741882808959,-3.1126124067724383,1.3807395998272756,0.409847435824312,
1.06,47.86472679293981,10.78601428623081,-18.411394829386204,84.01583381280399,-3.1192111504710316,1.3768687220958893,0.44253109735253526,
1.08,49.78768047335056,13.42692788650589,-17.724309348439217,83.25135934776512,-3.125622927929437,1.3730190282151271,0.4752772971432652,
1.1,51.740518788187714,15.960437991955008,-16.829044032256732,82.52557464953766,-3.131782994047385,1.3692156722519044,0.5078859933218567,
1.12,53.72332748701136,18.345668014772016,-15.740742733929679,83.93070651178498,-3.137627618627286,1.3654831669412135,0.5401583957414677,
1.14,55.736688379605475,20.553080772776994,-14.47908092169525,85.82786239286021,3.0207904502180236,1.361845346647728,0.5718973389475106,
1.16,57.78120424990501,22.529538592005395,-13.073477307041253,87.42922237799245,3.1350640591094385,1.358324962095877,0.6029109859395848,
1.18,59.85741021300158,24.222712722653036,-11.552500121223675,89.06044801230544,3.1305316066798947,1.354943218742342,0.6330174066163272,
1.2,61.9658398965655,25.604975339020708,-9.945393422624369,90.72382069096743,3.1265449160430787,1.3517196120417245,0.6620469258187864,
1.22,64.1066021749721,26.655468548086375,-8.278897333080703,90.23747420348282,3.123148938775179,1.348671801016714,0.6898443113801382,
1.24,66.27937375578675,27.359594633988998,-6.580230409999766,89.72554602463998,3.1203820516985763,1.3458154825033124,0.7162710383925324,
1.26,68.48382432681461,27.714218776118656,-4.8778548828442085,89.22633948292794,3.118275583235912,1.3431643170121466,0.7412071173450674,
1.28,70.71962553384657,27.725360774940278,-3.1970703655112866,88.73372060314186,3.1168535074612715,1.3407298954603695,0.764552505323265,
1.3,72.98645140690256,27.406619092648118,-1.5593083449874958,88.24171664559675,3.116132253144212,1.3385217311298359,0.7862281647523007,
1.32,75.28427073804738,26.779324551192033,0.01761149005660423,89.2445794582611,3.116120636319303,1.3365472779999539,0.8061767118013818,
1.34,77.61335347447091,25.867640664806512,1.5205951695062585,90.27219973492818,3.1168197154661494,1.3348119903882474,0.8243627622747803,
1.36,79.97397934406881,24.67982864374957,2.938288804030377,91.28688834509968,3.1182213775447534,1.3333193683142663,0.8407744725483229,
1.38,82.3664318261434,23.25077196364486,4.268787632547914,92.28498751089282,3.1203085231749434,1.3320709866488856,0.855423400071449,
1.4,84.79099849111586,21.62463266804722,5.510421776090965,93.26388855843678,3.123056473674813,1.331066505690527,0.8683428392805027,
1.42,87.24797122765247,19.831160763462982,6.662961621567543,94.22184450032941,3.1264329846069496,1.330303677503862,0.879587297329502,
1.44,89.7376464109302,17.898447008409946,7.726841217677055,95.15795174852498,3.1303982030992166,1.3297783454219239,0.8892318517113296,
1.46,92.26032500947873,15.852653375796502,8.70232316616257,96.0721092108967,3.1349046061072747,1.3294844396971435,0.8973713619471395,
1.48,94.81631262750778,13.71760500448479,9.58875468479309,96.96495117217273,3.1398969333154945,1.3294139735459145,0.9041195274856085,
1.5,97.40591948058984,11.514569983156004,10.383957893472228,97.83775430275571,-2.980898188191395,1.3295570446909502,0.9096077746752045,
1.52,100.02931376222185,9.26201528756351,11.083159989989625,97.93811651973958,-3.1321059393419417,1.3299018443241888,0.9139839667809962,
1.54,102.68651776611043,6.976020473267247,11.679094411547622,98.00239658604679,-3.126065258045841,1.3304346738415713,0.9174109227000261,
1.56,105.37755359036193,4.674729690512306,12.170060826008358,98.05248027886242,-3.119836780677908,1.3311402773720402,0.9200631744847907,
1.58,108.10244635708025,2.377011248147903,12.546119727793101,98.09087873575825,-3.1135125294647925,1.3320020855835248,0.9221240322123738,
1.6,110.86122413292412,0.08877569529841534,12.792013914898382,98.1198125980867,-3.1071906165443335,1.3330020665433255,0.9237844982373313,
1.62,113.65391768212541,-2.181801093717166,12.893699170833429,98.14112978792585,-3.100974574813153,1.3341207270718967,0.9252412925096734,
1.64,116.48056002296141,-4.420463179317295,12.837421542526508,98.15614113114653,-3.0949721751457875,1.33533729891283,0.9266938319050789,
1.66,119.34118594645578,-6.610399729927222,12.609660903207812,98.1654696735835,-3.0892938998940442,1.3366299671693314,0.9283409098904838,
1.68,122.2358315096299,-8.731127632130656,12.197937899684698,98.16894916548972,-3.0840510490999398,1.337976135836677,0.9303771338471876,
1.7,125.16453351177849,-10.757293642870264,11.591729681687202,98.1655909532778,-3.079353463590313,1.3393527272094217,0.9329891754123167,
1.72,128.12732896206774,-12.657654317767227,10.783469531042815,98.1536357573025,-3.0753068673267583,1.3407365101188864,0.9363519057273585,
1.74,131.12425454629303,-14.3943875884637,9.769629072570803,98.13070162926837,-3.0720098550191937,1.3421044502352781,0.9406245023495838,
1.76,134.1553460886104,-15.92274608669081,8.55218777489532,98.09403723279304,-3.0695505588453367,1.3434340853307458,0.945946569727818,
1.78,137.22063802020645,-17.191517939876594,7.139577257329639,98.0408599810796,-3.0680030930839104,1.3447039104849634,0.9524344122075706,
1.8,140.32016289481297,-18.145163984377962,5.54727045638472,97.96875423395983,-3.0674239719322682,1.34589372846524,0.9601777499361391,
1.82,143.45381251455208,-18.725412442560366,3.799578046101928,97.16658159241213,-3.067848615261294,1.34698497716728,0.9692368635351346,
1.84,146.62133321318234,-18.873539368139095,1.9309943285297209,96.32110661343263,-3.0692880739170856,1.3479610503601123,0.9796401303445371,
1.86,149.82246357451027,-18.536785766553606,-0.013595557202225717,95.45555612500931,-3.071726338132427,1.34880757517618,0.9913822853162405,
1.88,153.05693831279268,-17.672833123590383,-1.979574495719985,94.57307388101404,-3.0751184613190845,1.3495126340818553,1.0044235050885684,
1.9,156.32443784943828,-16.254743604150885,-3.9037291688583524,93.42194847404163,-3.079389725147232,1.3500669235480254,1.0186893974983677,
1.92,159.62477556776025,-14.276627244403876,-5.717058377984693,93.22561398107455,-3.0844360660702312,1.3504638409481777,1.0340720002312782,
1.94,162.9579537305795,-11.75780058049201,-7.348366371246901,93.06404969616345,-3.0901259486724446,1.3506994846531157,1.0504319211996225,
1.96,166.32397614574222,-8.743392709801315,-8.727161839267175,92.91404949958465,-3.0963036027062296,1.3507726070442356,1.0676014172382968,
1.98,169.7228419157854,-5.3057615417804245,-9.78959993554684,92.783789753743,-3.102793662826569,1.3506844987191946,1.0853885651395487,
2.0,173.15454538839197,-1.5436005524870433,-10.483543144003246,92.68029728628832,-3.1094071034695823,1.3504387890258551,1.1035825825648786,
2.02,176.61922559116982,2.423212605524429,-10.773291121866226,93.37388204488354,-3.1159481274761953,1.350041211164279,1.1219600455565097,
2.04,180.11717129058275,6.461027251502083,-10.642537619362656,94.12857762556304,-3.122221609007433,1.3494993520465992,1.1402917969833786,
2.06,183.64867188739274,10.430181588319472,-10.095472067789343,94.91752373420172,-3.1280406826772165,1.348822410253542,1.1583503347018982,
2.08,187.21401245810347,14.19306657540293,-9.15739647348927,95.73729775663685,-3.133234065733216,1.3480209736586486,1.1759174481943517,
2.1,190.8134739460002,17.622262446632693,-7.87298618279757,96.58192328809727,-3.137652701550373,1.347106826970995,1.1927918068921528,
2.12,194.44718365220612,20.606972836029012,-6.3025590317777,96.67604412714294,-3.1411753818237704,1.3460927977951525,1.2087961899640534,
2.14,198.115110302905,23.05757974325994,-4.518075082990158,96.75019271330873,2.9155212276253373,1.344992651574974,1.223784060718732,
2.16,201.81721391462304,24.90919664569185,-2.5978180837491065,96.82353509244614,3.1379734086517863,1.3438210487408413,1.23764507364132,
2.18,205.55345157396255,26.123969489751666,-0.6226638844722614,96.88843964995425,3.137531163354706,1.3425934639424948,1.2503094044853076,
2.2,209.32377791819985,26.68723284015258,1.3301058716186653,96.93910585492512,3.1381269085942067,1.3413260698699667,1.2617506628694874,
2.22,213.12814559465045,26.606215187199044,3.190808595498041,96.97208142624686,3.1397075192935824,1.340035654853543,1.2719871285815947,
2.24,216.96650574789197,25.905783549851726,4.8998915678915465,96.98643351640449,-2.9065811926766143,1.338739514930208,1.2810813337648166,
2.26,220.83880853912055,24.624705700044295,6.409571179403443,96.98357444640553,-3.1377292719028262,1.337455305734097,1.2891380046757501,
2.28,224.74500370008863,22.81240492198417,7.6844199081068645,96.96678370154036,-3.133810085486434,1.3362008455664218,1.2963004356652148,
2.3,228.68504112279103,20.526518808985912,8.70102729562023,96.94050625843272,-3.1293936377173055,1.3349938661693006,1.3027454231306297,
2.32,232.65902170259074,17.831911852740973,9.447260530410157,97.68165384138007,-3.124646454257,1.3338517141548274,1.30867693084002,
2.34,236.66720367759098,14.798758168118443,9.92072849365736,98.45345584545738,-3.119741835940836,1.332791031600971,1.3143187013448312,
2.36,240.7098532014937,11.502271474206177,10.125910852472945,99.22826663264254,-3.1148541799681575,1.3318274073267662,1.3199061135952608,
2.38,244.78723911061746,8.024474522208614,10.071888926660089,100.0074934226034,-3.110153481065564,1.3309749663543176,1.3256775353701902,
2.4,248.89963361923523,4.454054604326812,9.771286123226547,100.79061855066432,-3.1058000821070855,1.3302459477382473,1.3318653980752626,
2.42,253.04701193732134,0.8868873952390364,9.23856308121749,100.0263588812067,-3.101939718291772,1.3296503093822083,1.3386872314358333,
2.44,257.22904079875514,-2.572847150309264,8.490338888243926,99.19486229744065,-3.098698889882809,1.3291953453167709,1.346336887011384,
2.46,261.4453795750687,-5.814839101313776,7.546416968253567,98.35597272954242,-3.096180701434704,1.3288853490299048,1.3549763462534585,
2.48,265.69569300256313,-8.726578559984699,6.430187992153857,97.50497258801916,-3.094461267128747,1.3287213323677378,1.364728453363714,
2.5,269.97965131690387,-11.19751743210762,5.170299369792783,96.63795010271095,-3.093586768507072,1.328700807733009,1.3756708779117524,
2.52,274.29708112299426,-13.124776850098305,3.802593288036089,96.529420886921,-3.0935712873055126,1.3288176452829232,1.3878316285325187,
2.54,278.64797094490103,-14.434821662000717,2.3796811304436236,96.43671522544007,-3.094395213968862,1.3290624748872921,1.401186464173096,
2.56,283.0323199504448,-15.05845520432395,0.9547485088990286,96.32859585807788,-3.0960050084683517,1.3294228335095553,1.415658524193181,
2.58,287.45013142041375,-14.956173607050072,-0.41264710320757336,96.20989547176572,-3.098314652793025,1.3298828270919505,1.4311201693125204,
2.6,291.9014121462433,-14.12110085769112,-1.6533904939787614,96.08736285238038,-3.1012081955480126,1.330423235764098,1.4473970517145085,
2.62,296.3861715072241,-12.582932926306864,-2.6943775872741016,95.96879748123357,-3.104543675613137,1.3310218859885843,1.464274536801298,
2.64,300.9044204065234,-10.409819487832635,-3.4648642244217935,95.86190908448864,-3.108158564666285,1.3316541792074357,1.4815063513195845,
2.66,305.4561701088029,-7.706383160469462,-3.9033029348286603,95.77308771210922,-3.111876662439099,1.3322937770209833,1.4988251656043128,
2.68,310.0414310208651,-4.608146071710857,-3.964389742024311,95.70630141850056,-3.1155162371064837,1.3329134371905969,1.5159546627699088,
2.7,314.6602114590852,-1.272782024833699,-3.625301780401247,95.66233851866357,-3.11889905428081,1.333485981105867,1.5326225148316746,
2.72,319.3126684708266,2.130775313473337,-2.8903495984026177,96.4200699892733,-3.1218597923242872,1.333985357160189,1.5485735829687122,
2.74,323.9991143207551,5.462315834280202,-1.7978545061973192,97.2288303628616,-3.12425530819789,1.3343871876459081,1.5635812647939442,
2.76,328.7198629950812,8.56075010865808,-0.4055553412177513,98.04056216281961,-3.1259728888373135,1.334669844594669,1.5774587187285116,
2.78,333.4752149322669,31299.97723615198,1.2064601419424732,-58729.039083730495,-3.126936969019391,1.3348160636785593,1.5900698682732444,
2.8,338.2654562457467,-29734.238864287254,2.937176861247495,-2777.0895970616257,-3.127113929913351,1.3348139011081732,1.6013370790456412,
2.82,343.0905592861786,-1525.7577836785676,4.674909124248634,98.75346140161288,-3.126514400373526,1.3346574389679573,1.6112459982400924,
2.84,347.9501683606318,16.219242991578053,6.306155123643988,97.83094134732609,-3.1251928092389822,1.3343472271180445,1.6198473436687835,
