Temps,Position en z,Acceleration en x avec g,Acceleration en y avec g,Acceleration en z avec g,Angle phi,Angle theta,Angle psi,
0.0,-0.0,-6.817293572131451e-17,-1.367341682590657,9.729141608459434,-3.01941960595019,1.4311699866353498,-4.985801031981232e-17,
0.02,0.0,-6.817293572131451e-17,-1.367341682590657,9.729141608459434,-3.01941960595019,1.4311699866353498,-4.985801031981232e-17,
0.04,0.0,-6.817293572131451e-17,-1.367341682590657,9.729141608459434,-3.01941960595019,1.4311699866353498,-4.985801031981232e-17,
0.06,0.0006113729580661594,-6.817293570821956e-17,-1.3673416823280118,12.815010799336985,-3.01941960595019,1.4311699866353498,-4.985801031981232e-17,
0.08,0.00443205739407769,-6.817293562638452e-17,-1.36734168068665,22.84518870120791,-3.01941960595019,1.4311699866353498,-4.985801031981232e-17,
0.1,0.01566402201995313,-6.817293538580763e-17,-1.3673416758614096,34.03532204232874,-3.01941960595019,1.4311699866353498,-4.985801031981232e-17,
0.12,0.04040191186881593,-6.817293485594803e-17,-1.367341665234038,53.62214912589184,-3.01941960595019,1.4311699866353498,-4.985801031981232e-17,
0.14,0.08580706323648926,-6.817293388341743e-17,-1.367341645728033,70.20518344063902,-3.01941960595019,1.4311699866353498,-4.985801031981232e-17,
0.16,0.15845017161257316,-6.81729323274784e-17,-1.3673416145206296,86.81054748308546,-3.01941960595019,1.4311699866353498,-4.985801031981232e-17,
0.18,0.2647773950016087,-6.817293005006105e-17,-1.3673415688425665,102.76400691342407,-3.01941960595019,1.4311699866353498,-4.985801031981232e-17,
0.2,0.41097605961160527,-6.817292691863935e-17,-1.3673415060357743,118.0622846378739,-3.01941960595019,1.4311699866353498,-4.985801031981232e-17,
0.22,0.6003721614072629,-6.817292286197394e-17,-1.3673414246714082,119.57247050576919,-3.01941960595019,1.4311699866353498,-4.985801031981232e-17,
0.24,0.8335541615322478,-6.817291786746063e-17,-1.3673413244966663,121.03907582344343,-3.01941960595019,1.4311699866353498,-4.985801031981232e-17,
0.26,1.1111033002476165,-6.817291192264986e-17,-1.3673412052618485,122.50820753208288,-3.01941960595019,1.4311699866353498,-4.985801031981232e-17,
0.28,1.433649153163581,-6.817290501405674e-17,-1.3673410666964891,124.21878579451592,-3.01941960595019,1.4311699866353498,-4.985801031981232e-17,
0.3,1.8018698736587468,-6.817289712715599e-17,-1.3673409085092552,125.93335530838722,-3.01941960595019,1.4311699866353498,-4.985801031981232e-17,
0.32,2.216271982511488,-6.817288825109845e-17,-1.3673407304825451,126.77771160105746,-3.01941960595019,1.4311699866353498,-4.985801031981232e-17,
0.34,2.6771891879219814,-6.817287837873644e-17,-1.3673405324729988,127.61914111610916,-3.01941960595019,1.4311699866353498,-4.985801031981232e-17,
0.36,3.184954964167251,-6.817286750292729e-17,-1.3673403143373553,128.4620264111725,-3.01941960595019,1.4311699866353498,-4.985801031981232e-17,
0.38,3.739903362785732,-6.817285561651597e-17,-1.3673400759321075,129.30637128027044,-3.01941960595019,1.4311699866353498,-4.985801031981232e-17,
0.4,4.342369014082624,-6.817284271233504e-17,-1.3673398171134972,130.15217953064445,-3.01941960595019,1.4311699866353498,-4.985801031981232e-17,
0.42,4.992677634208537,-6.8172828783408e-17,-1.3673395377415982,130.95153239585392,-3.01941960595019,1.4311699866353498,-4.985801031981232e-17,
0.44,5.691145956101611,-6.81728138229508e-17,-1.3673392376803422,131.75195157211317,-3.01941960595019,1.4311699866353498,-4.985801031981232e-17,
0.46,6.438091202394054,-6.817279782416884e-17,-1.3673389167934502,132.55376165084866,-3.01941960595019,1.4311699866353498,-4.985801031981232e-17,
0.48,7.23385492196288,-6.817278077974648e-17,-1.3673385749341933,133.47696768051173,-3.01941960595019,1.4311699866353498,-4.985801031981232e-17,
0.5,8.078803192291485,-6.817276268184277e-17,-1.3673382119453057,134.4027076135861,-3.01941960595019,1.4311699866353498,-4.985801031981232e-17,
0.52,8.972018930953533,-6.81727435501006e-17,-1.367337828220764,128.84928162760093,-3.01941960595019,1.4311699866353498,-4.985801031981232e-17,
0.54,9.911289998658281,-6.817272343190172e-17,-1.3673374247109014,123.23172912164631,-3.01941960595019,1.4311699866353498,-4.985801031981232e-17,
0.56,10.894497076006044,-6.817270237263969e-17,-1.3673370023261753,118.1446185076337,-3.01941960595019,1.4311699866353498,-4.985801031981232e-17,
0.58,11.919732132197364,-6.817268041318253e-17,-1.3673365618862736,113.59406752249139,-3.01941960595019,1.4311699866353498,-4.985801031981232e-17,
0.6,12.98519272975286,-6.817265759213657e-17,-1.367336104165522,109.04065083241645,-3.01941960595019,1.4311699866353498,-4.985801031981232e-17,
0.62,14.089799356533483,-5.642456823280584,-2.3212795095859926,108.10396468283822,-3.019616239313129,1.4310684671916671,0.0008022664939652805,
0.64,15.233539381994357,-11.271784506626013,-3.4805633580132356,108.92751109881269,-3.0202157666461367,1.4307584336604546,0.0032534479517901255,
0.66,16.41674962574533,-11.832011399421663,-4.259410254344985,109.75512155645812,-3.021231292865739,1.4302322801956007,0.007415692370506653,
0.68,17.639744296255575,-12.29066211060775,-5.094978696704886,110.44086451821192,-3.0226723122863084,1.429484198390877,0.013337806583024418,
0.7,18.90281092530629,-12.683693460499669,-5.991830338345696,111.10661024204744,-3.0245463483131743,1.428509336139023,0.021061983483046207,
0.72,20.20567717936812,-12.988767924634658,-6.945822780817206,108.93615205877596,-3.0268585721302284,1.4273039941200245,0.030622342173632404,
0.74,21.547504451364727,-13.17692420387732,-7.9491573696107665,106.70768272719837,-3.029611219333447,1.4258659221631533,0.04204267239036862,
0.76,22.927432849892416,-13.224096014493341,-8.994141959734886,104.39513262091745,-3.032803191460568,1.4241945125209732,0.055335002656183324,
0.78,24.3445757964694,-13.107813312838191,-10.070905004129266,101.99775914669168,-3.036429713851092,1.4222909534477084,0.07049847422808359,
0.8,25.7980315113698,-12.80641598678304,-11.167116603964276,99.57503914771185,-3.0404819977918933,1.4201583693461568,0.08751830588966272,
0.82,27.287345287535132,-12.30176738304173,-12.271416121083657,99.40666000988587,-3.0449469631601,1.4178019163543707,0.10636508359606858,
0.84,28.81251545562354,-11.581229335059737,-13.371303107435914,99.25084129426111,-3.049807094164433,1.415228793204858,0.1269946902689435,
0.86,30.37354352913721,-10.630574073692744,-14.44845020001158,99.07952915885609,-3.055040172347586,1.4124483060148516,0.14934774360154418,
0.88,31.970428129429813,-9.434730558583043,-15.479880657959926,98.8962200612021,-3.0606188699065804,1.4094719984370139,0.17334844062178204,
0.9,33.60316477151152,-7.976643521124421,-16.43722483251788,98.70540333481293,-3.06651012202687,1.4063138924609315,0.19890242970637298,
0.92,35.2712712359521,-6.259679602060724,-17.293240679512845,96.1075100140027,-3.0726751222753723,1.4029904128816282,0.22589706728504028,
0.94,36.97378095583868,-4.301469637882999,-18.017347729454965,93.47320053582177,-3.0790696976877867,1.3995201365340117,0.25420295089341455,
0.96,38.70971709948878,-2.122009940323524,-18.58333387740855,90.84503414558509,-3.085644564727733,1.395923617448224,0.2836747630905538,
0.98,40.478188565936385,0.24880517236618527,-18.96842022880591,88.67974238431654,-3.092345784752479,1.3922231312628413,0.31415267618836384,
1.0,42.2783914926409,2.7726185646245862,-19.153596651358075,86.5404803108099,-3.099115387666522,1.388442361365756,0.3454641737326999,
1.02,44.10976234316445,5.4042937998544875,-19.1263364688255,85.65332664530278,-3.105892136024344,1.3846060471739698,0.3774261700518364,
1.04,45.97198042750066,8.093285817430893,-18.879943437216916,84.81741882808956,-3.1126124067724383,1.3807395998272756,0.4098474358243119,
1.06,47.86472679293981,10.786014286233065,-18.411394829386197,84.015833812804,-3.1192111504710316,1.3768687220958893,0.44253109735253515,
1.08,49.78768047335056,13.426927886504792,-17.724309348439217,83.25135934776512,-3.125622927929437,1.3730190282151271,0.4752772971432652,
1.1,51.740518788187714,15.96043799195498,-16.829044032256732,82.52557464953766,-3.131782994047385,1.3692156722519044,0.5078859933218567,
1.12,53.72332748701136,18.345668014772002,-15.740742733929679,83.93070651178498,-3.137627618627286,1.3654831669412135,0.5401583957414677,
1.14,55.736688379605475,20.553080772776983,-14.47908092169525,85.82786239286021,3.0207904502180236,1.361845346647728,0.5718973389475104,
1.16,57.78120424990501,22.529538592005384,-13.073477307041298,87.42922237799245,3.1350640591094385,1.358324962095877,0.6029109859395847,
1.18,59.85741021300158,24.222712722652833,-11.552500121222995,89.06044801230544,3.1305316066798947,1.354943218742342,0.6330174066163269,
1.2,61.9658398965655,25.604975339023383,-9.945393422626609,90.72382069096747,3.1265449160430787,1.3517196120417239,0.662046925818786,
1.22,64.1066021749721,26.65546854808168,-8.278897333078326,90.23747420348278,3.123148938775179,1.348671801016714,0.6898443113801378,
1.24,66.27937375578675,27.359594633991172,-6.580230410000566,89.72554602463998,3.1203820516985763,1.3458154825033124,0.7162710383925324,
1.26,68.48382432681461,27.714218776118685,-4.877854882845034,89.22633948292794,3.118275583235912,1.3431643170121461,0.7412071173450671,
1.28,70.71962553384657,27.72536077494007,-3.197070365509699,88.73372060314185,3.1168535074612715,1.340729895460369,0.7645525053232645,
1.3,72.98645140690256,27.406619092648477,-1.5593083449883123,88.24171664559675,3.1161322531442117,1.3385217311298354,0.7862281647523001,
1.32,75.28427073804738,26.779324551194126,0.017611490056647527,89.24457945826113,3.116120636319303,1.3365472779999534,0.8061767118013811,
1.34,77.61335347447091,25.867640664804288,1.5205951695062583,90.27219973492818,3.1168197154661494,1.334811990388247,0.8243627622747799,
1.36,79.97397934406881,24.67982864374708,2.9382888040312283,91.28688834509967,3.1182213775447534,1.3333193683142675,0.8407744725483226,
1.38,82.3664318261434,23.250771963649488,4.26878763254779,92.28498751089283,3.1203085231749434,1.3320709866488862,0.855423400071449,
1.4,84.79099849111586,21.624632668045077,5.510421776090252,93.26388855843678,3.1230564736748136,1.331066505690527,0.8683428392805029,
1.42,87.24797122765247,19.8311607634631,6.662961621566643,94.22184450032941,3.1264329846069505,1.330303677503862,0.8795872973295024,
1.44,89.7376464109302,17.898447008409782,7.726841217677919,95.15795174852498,3.1303982030992175,1.3297783454219243,0.8892318517113301,
1.46,92.26032500947873,15.852653375796498,8.702323166161904,96.0721092108967,3.1349046061072747,1.329484439697144,0.8973713619471391,
1.48,94.81631262750778,13.717605004484621,9.588754684794647,96.96495117217273,3.139896933315495,1.3294139735459145,0.9041195274856084,
1.5,97.40591948058984,11.514569983156168,10.38395789347138,97.83775430275571,-2.9808981881913947,1.3295570446909502,0.9096077746752042,
1.52,100.02931376222185,9.262015287563512,11.083159989989559,97.93811651973958,-3.1321059393419417,1.3299018443241888,0.9139839667809961,
1.54,102.68651776611043,6.976020473269667,11.679094411546735,98.00239658604679,-3.1260652580458403,1.3304346738415718,0.9174109227000258,
1.56,105.37755359036193,4.674729690507693,12.170060826008527,98.05248027886242,-3.119836780677908,1.3311402773720407,0.9200631744847901,
1.58,108.10244635708025,2.3770112481500334,12.54611972779449,98.09087873575825,-3.113512529464792,1.3320020855835248,0.9221240322123738,
1.6,110.86122413292412,0.08877569529836116,12.7920139148979,98.1198125980867,-3.1071906165443335,1.333002066543326,0.9237844982373309,
1.62,113.65391768212541,-2.181801093716969,12.89369917083394,98.14112978792585,-3.1009745748131534,1.334120727071897,0.925241292509673,
1.64,116.48056002296143,-4.420463179317133,12.837421542524952,98.15614113114653,-3.094972175145788,1.3353372989128307,0.9266938319050786,
1.66,119.3411859464558,-6.610399729927375,12.609660903208638,98.1654696735835,-3.0892938998940447,1.336629967169332,0.9283409098904835,
1.68,122.23583150962992,-8.731127632130661,12.197937899684725,98.16894916548972,-3.0840510490999393,1.3379761358366777,0.9303771338471878,
1.7,125.1645335117785,-10.75729364287042,11.591729681687347,98.1655909532778,-3.0793534635903126,1.3393527272094221,0.9329891754123162,
1.72,128.12732896206776,-12.657654317766925,10.783469531042504,98.1536357573025,-3.075306867326758,1.3407365101188868,0.9363519057273582,
1.74,131.12425454629306,-14.394387588463992,9.769629072571783,98.13070162926839,-3.072009855019193,1.3421044502352792,0.9406245023495836,
1.76,134.15534608861043,-15.92274608669052,8.55218777489291,98.09403723279304,-3.069550558845337,1.3434340853307467,0.9459465697278172,
1.78,137.22063802020648,-17.19151793987688,7.1395772573327125,98.0408599810796,-3.0680030930839104,1.3447039104849643,0.9524344122075701,
1.8,140.320162894813,-18.145163984377824,5.547270456382543,97.96875423395983,-3.0674239719322682,1.3458937284652404,0.9601777499361386,
1.82,143.4538125145521,-18.725412442560224,3.799578046102372,97.16658159241213,-3.0678486152612945,1.3469849771672804,0.969236863535134,
1.84,146.62133321318237,-18.87353936813923,1.9309943285299223,96.32110661343263,-3.069288073917086,1.3479610503601132,0.9796401303445368,
1.86,149.8224635745103,-18.53678576655598,-0.013595557201328434,95.4555561250093,-3.0717263381324273,1.348807575176181,0.9913822853162402,
1.88,153.0569383127927,-17.672833123587978,-1.9795744957224244,94.57307388101404,-3.075118461319085,1.3495126340818557,1.0044235050885677,
1.9,156.3244378494383,-16.254743604151066,-3.9037291688553197,93.42194847404163,-3.0793897251472324,1.3500669235480258,1.018689397498367,
1.92,159.62477556776028,-14.27662724440138,-5.7170583779870805,93.22561398107457,-3.084436066070232,1.3504638409481786,1.0340720002312775,
1.94,162.95795373057953,-11.757800580494438,-7.348366371245111,93.06404969616345,-3.090125948672445,1.3506994846531164,1.0504319211996216,
1.96,166.32397614574225,-8.743392709801153,-8.72716183926959,92.91404949958465,-3.0963036027062305,1.3507726070442363,1.0676014172382962,
1.98,169.72284191578544,-5.3057615417829975,-9.789599935543484,92.78378975374297,-3.1027936628265693,1.3506844987191957,1.0853885651395476,
2.0,173.15454538839202,-1.5436005524844414,-10.48354314400702,92.68029728628834,-3.1094071034695827,1.350438789025856,1.1035825825648777,
2.02,176.61922559116985,2.4232126055264276,-10.773291121863389,93.37388204488359,-3.115948127476196,1.3500412111642799,1.121960045556509,
2.04,180.11717129058277,6.461027251500041,-10.642537619363551,94.12857762556305,-3.1222216090074335,1.3494993520466,1.140291796983378,
2.06,183.64867188739277,10.430181588319487,-10.09547206779038,94.91752373420172,-3.128040682677217,1.3488224102535424,1.1583503347018975,
2.08,187.2140124581035,14.193066575400515,-9.157396473486834,95.7372977566368,-3.1332340657332165,1.348020973658649,1.1759174481943513,
2.1,190.81347394600022,17.622262446637166,-7.872986182799341,96.5819232880973,-3.137652701550374,1.3471068269709956,1.1927918068921517,
2.12,194.44718365220615,20.60697283602702,-6.302559031778023,96.67604412714294,-3.141175381823771,1.3460927977951536,1.2087961899640527,
2.14,198.11511030290504,23.057579743257453,-4.518075082988442,96.75019271330872,2.915521227625337,1.3449926515749748,1.2237840607187314,
2.16,201.81721391462307,24.909196645696408,-2.5978180837511244,96.82353509244615,3.137973408651786,1.3438210487408424,1.2376450736413196,
2.18,205.55345157396258,26.123969489749438,-0.6226638844702219,96.88843964995425,3.137531163354706,1.3425934639424957,1.2503094044853074,
2.2,209.32377791819988,26.687232840154795,1.3301058716173624,96.93910585492513,3.1381269085942067,1.341326069869968,1.261750662869487,
2.22,213.12814559465048,26.60621518719466,3.190808595498627,96.97208142624685,3.1397075192935824,1.3400356548535446,1.2719871285815942,
2.24,216.966505747892,25.905783549853712,4.899891567892344,96.98643351640449,-2.9065811926766143,1.3387395149302088,1.281081333764816,
2.26,220.83880853912058,24.62470570004452,6.409571179401043,96.98357444640553,-3.1377292719028262,1.337455305734098,1.2891380046757492,
2.28,224.74500370008866,22.812404921984033,7.684419908109523,96.96678370154036,-3.133810085486434,1.3362008455664227,1.296300435665214,
2.3,228.68504112279106,20.526518808988207,8.701027295618946,96.94050625843273,-3.1293936377173055,1.3349938661693022,1.3027454231306288,
2.32,232.6590217025908,17.831911852736607,9.447260530410096,97.68165384138007,-3.124646454257,1.3338517141548283,1.3086769308400195,
2.34,236.66720367759103,14.798758168120557,9.920728493655972,98.4534558454574,-3.119741835940836,1.3327910316009728,1.3143187013448303,
2.36,240.70985320149376,11.5022714742062,10.125910852474535,99.22826663264254,-3.1148541799681575,1.331827407326767,1.3199061135952606,
2.38,244.78723911061752,8.02447452220861,10.07188892665986,100.0074934226034,-3.110153481065564,1.3309749663543184,1.3256775353701895,
2.4,248.8996336192353,4.454054604326746,9.771286123227299,100.79061855066432,-3.1058000821070855,1.3302459477382484,1.331865398075262,
2.42,253.0470119373214,0.886887395241323,9.238563081216736,100.02635888120672,-3.101939718291772,1.3296503093822092,1.3386872314358325,
2.44,257.2290407987552,-2.572847150313623,8.490338888244166,99.19486229744066,-3.0986988898828094,1.329195345316772,1.3463368870113837,
2.46,261.4453795750688,-5.814839101311684,7.546416968252207,98.35597272954242,-3.096180701434704,1.3288853490299066,1.3549763462534579,
2.48,265.6956930025632,-8.726578559984718,6.430187992155664,97.50497258801916,-3.0944612671287466,1.3287213323677398,1.3647284533637134,
2.5,269.9796513169039,-11.197517432107519,5.170299369791242,96.63795010271095,-3.093586768507072,1.32870080773301,1.3756708779117512,
2.52,274.2970811229943,-13.12477685009841,3.802593288037907,96.529420886921,-3.093571287305513,1.3288176452829246,1.3878316285325183,
2.54,278.6479709449011,-14.434821662000669,2.379681130442381,96.43671522544007,-3.094395213968862,1.329062474887293,1.401186464173095,
2.56,283.03231995044484,-15.05845520432395,0.9547485088991889,96.32859585807788,-3.096005008468352,1.3294228335095566,1.4156585241931798,
2.58,287.4501314204138,-14.956173607050111,-0.41264710320647224,96.20989547176572,-3.098314652793026,1.3298828270919514,1.4311201693125195,
2.6,291.90141214624333,-14.121100857691017,-1.6533904939808997,96.08736285238038,-3.1012081955480135,1.3304232357640988,1.447397051714507,
2.62,296.38617150722416,-12.582932926306853,-2.6943775872731104,95.96879748123357,-3.104543675613138,1.3310218859885852,1.4642745368012964,
2.64,300.90442040652346,-10.409819487832639,-3.4648642244217447,95.86190908448864,-3.1081585646662857,1.3316541792074366,1.4815063513195832,
2.66,305.45617010880295,-7.706383160469466,-3.9033029348286536,95.77308771210922,-3.1118766624391,1.3322937770209842,1.4988251656043114,
2.68,310.04143102086516,-4.608146071713053,-3.964389742025415,95.70630141850053,-3.115516237106485,1.3329134371905977,1.5159546627699076,
2.7,314.66021145908525,-1.2727820248294082,-3.6253017803990737,95.66233851866362,-3.118899054280811,1.3334859811058686,1.5326225148316734,
2.72,319.3126684708267,2.1307753134713274,-2.890349598402549,96.4200699892733,-3.121859792324288,1.3339853571601896,1.5485735829687104,
2.74,323.99911432075515,5.462315834280101,-1.7978545062005502,97.2288303628616,-3.124255308197891,1.3343871876459092,1.563581264793943,
2.76,328.71986299508126,8.560750108655906,-0.4055553412146149,98.0405621628196,-3.125972888837315,1.3346698445946699,1.5774587187285105,
2.78,333.47521493226697,31299.977236151983,1.2064601419404508,-58729.039083730495,-3.126936969019392,1.3348160636785602,1.5900698682732428,
2.8,338.26545624574675,-29734.238864287254,2.9371768612495943,-2777.0895970616257,-3.1271139299133517,1.334813901108174,1.6013370790456398,
2.82,343.09055928617863,-1525.7577836785604,4.674909124247652,98.7534614016129,-3.126514400373527,1.3346574389679582,1.6112459982400913,
2.84,347.95016836063184,16.219242991576067,6.30615512364394,97.8309413473261,-3.125192809238983,1.3343472271180457,1.6198473436687821,
