Temps,Position en z,Acceleration en x avec g,Acceleration en y avec g,Acceleration en z avec g,Angle phi,Angle theta,Angle psi,
0.0,-0.0,-6.817293572131451e-17,-1.367341682590657,9.729141608459434,-3.01941960595019,1.4311699866353498,-4.985801031981232e-17,
0.02,0.0,-6.817293572131451e-17,-1.367341682590657,9.729141608459434,-3.01941960595019,1.4311699866353498,-4.985801031981232e-17,
0.04,0.0,-6.817293572131451e-17,-1.367341682590657,9.729141608459434,-3.01941960595019,1.4311699866353498,-4.985801031981232e-17,
0.06,0.0006113729580661594,-6.817293570821956e-17,-1.3673416823280118,12.815010799336985,-3.01941960595019,1.4311699866353498,-4.985801031981232e-17,
0.08,0.00443205739407769,-6.817293562638452e-17,-1.36734168068665,22.84518870120791,-3.01941960595019,1.4311699866353498,-4.985801031981232e-17,
0.1,0.01566402201995313,-6.817293538580763e-17,-1.3673416758614096,34.03532204232874,-3.01941960595019,1.4311699866353498,-4.985801031981232e-17,
0.12,0.04040191186881593,-6.817293485594803e-17,-1.367341665234038,53.62214912589184,-3.01941960595019,1.4311699866353498,-4.985801031981232e-17,
0.14,0.08580706323648926,-6.817293388341743e-17,-1.367341645728033,70.20518344063902,-3.01941960595019,1.4311699866353498,-4.985801031981232e-17,
0.16,0.15845017161257316,-6.81729323274784e-17,-1.3673416145206296,86.81054748308546,-3.01941960595019,1.4311699866353498,-4.985801031981232e-17,
0.18,0.2647773950016087,-6.817293005006105e-17,-1.3673415688425665,102.76400691342407,-3.01941960595019,1.4311699866353498,-4.985801031981232e-17,
0.2,0.41097605961160527,-6.817292691863935e-17,-1.3673415060357743,118.0622846378739,-3.01941960595019,1.4311699866353498,-4.985801031981232e-17,
0.22,0.6003721614072629,-6.817292286197394e-17,-1.3673414246714082,119.57247050576919,-3.01941960595019,1.4311699866353498,-4.985801031981232e-17,
0.24,0.8335541615322478,-6.817291786746063e-17,-1.3673413244966663,121.03907582344343,-3.01941960595019,1.4311699866353498,-4.985801031981232e-17,
0.26,1.1111033002476165,-6.817291192264986e-17,-1.3673412052618485,122.50820753208288,-3.01941960595019,1.4311699866353498,-4.985801031981232e-17,
0.28,1.433649153163581,-6.817290501405674e-17,-1.3673410666964891,124.21878579451592,-3.01941960595019,1.4311699866353498,-4.985801031981232e-17,
0.3,1.8018698736587468,-6.817289712715599e-17,-1.3673409085092552,125.93335530838722,-3.01941960595019,1.4311699866353498,-4.985801031981232e-17,
0.32,2.216271982511488,-6.817288825109845e-17,-1.3673407304825451,126.77771160105746,-3.01941960595019,1.4311699866353498,-4.985801031981232e-17,
0.34,2.6771891879219814,-6.817287837873644e-17,-1.3673405324729988,127.61914111610916,-3.01941960595019,1.4311699866353498,-4.985801031981232e-17,
0.36,3.184954964167251,-6.817286750292729e-17,-1.3673403143373553,128.4620264111725,-3.01941960595019,1.4311699866353498,-4.985801031981232e-17,
0.38,3.739903362785732,-6.817285561651597e-17,-1.3673400759321075,129.30637128027044,-3.01941960595019,1.4311699866353498,-4.985801031981232e-17,
0.4,4.342369014082624,-6.817284271233504e-17,-1.3673398171134972,130.15217953064445,-3.01941960595019,1.4311699866353498,-4.985801031981232e-17,
0.42,4.992677634208537,-6.8172828783408e-17,-1.3673395377415982,130.95153239585392,-3.01941960595019,1.4311699866353498,-4.985801031981232e-17,
0.44,5.691145956101611,-6.81728138229508e-17,-1.3673392376803422,131.75195157211317,-3.01941960595019,1.4311699866353498,-4.985801031981232e-17,
0.46,6.438091202394054,-6.817279782416884e-17,-1.3673389167934502,132.55376165084866,-3.01941960595019,1.4311699866353498,-4.985801031981232e-17,
0.48,7.23385492196288,-6.817278077974648e-17,-1.3673385749341933,133.47696768051173,-3.01941960595019,1.4311699866353498,-4.985801031981232e-17,
0.5,8.078803192291485,-6.817276268184277e-17,-1.3673382119453057,134.4027076135861,-3.01941960595019,1.4311699866353498,-4.985801031981232e-17,
0.52,8.972018930953533,-6.81727435501006e-17,-1.367337828220764,128.84928162760093,-3.01941960595019,1.4311699866353498,-4.985801031981232e-17,
0.54,9.911289998658281,-6.817272343190172e-17,-1.3673374247109014,123.23172912164631,-3.01941960595019,1.4311699866353498,-4.985801031981232e-17,
0.56,10.894130017670035,-0.009059192624616208,-0.01890042483649146,116.47713656800354,-3.0194197489805243,1.4311698011648668,1.5979178429610378e-06,
0.58,11.918253316097033,-0.05585085840175064,-0.022671806021791717,111.88067307920912,-3.0194207721891715,1.4311684739728472,1.3032559827407083e-05,
0.6,12.981842786839096,-0.11588432791331224,-0.044518627657265504,107.297684532477,-3.0194236144936575,1.431164785544474,4.4811695389967094e-05,
0.62,14.084151207047885,-0.1799054051673003,-0.07129984033185356,108.09997910058645,-3.019429266935232,1.4311574452631293,0.00010805723904507811,
0.64,15.225507945713026,-0.2477007377412178,-0.10353821083624945,108.95670969961975,-3.019438766165254,1.431145097675397,0.0002144521744242647,
0.66,16.406252794591108,-0.3190927481897294,-0.14175169198232682,109.81345927524309,-3.0194531882209037,1.4311263280653335,0.0003761935096223114,
0.68,17.626700752956022,-0.39380216858683714,-0.18644417120102147,110.5451480549859,-3.0194736405461957,1.4310996699711722,0.000605928575080362,
0.7,18.887141716808834,-0.47146064058928006,-0.23809845732642473,111.27520637883616,-3.019501252509199,1.4310636143002968,0.0009166776290764926,
0.72,20.187307190506157,-0.55152825448335,-0.297049082939408,109.18874243351912,-3.019537163304382,1.431016621495967,0.0013217302459080731,
0.74,21.526363819894925,-0.633082125376427,-0.3634605409744657,107.06488843981789,-3.0195825041088455,1.4309571409719124,0.0018344790724715795,
0.76,22.903458504258857,-0.715265116057933,-0.43748472713094166,104.87806086564738,-3.0196383815077925,1.4308836286580593,0.002468269898588768,
0.78,24.31771298872045,-0.797197588316441,-0.519179479398062,102.62746189697876,-3.0197058609083895,1.4307945643227626,0.0032362536853094955,
0.8,25.768235356056227,-0.8779220559623182,-0.608498620043519,100.37189072208041,-3.0197859491351355,1.4306884697405717,0.004151231348182717,
0.82,27.254583046670763,-0.9565266213153902,-0.7054958602514129,100.38969425037104,-3.0198795778720813,1.430563925399679,0.0052255112228679085,
0.84,28.776769168162133,-1.032343528300565,-0.8102565442320742,100.43710858568016,-3.0199875908219274,1.4304195815075642,0.0064708160281268835,
0.86,30.334812217588578,-1.1043822011796596,-0.9226063087131307,100.48337535231606,-3.0201107262185194,1.4302541745664172,0.00789814202580331,
0.88,31.92873012747404,-1.1714830608063025,-1.042244422934941,100.52846208859371,-3.020249596977637,1.4300665464918165,0.009517596545389898,
0.9,33.55854024652537,-1.2324137996240574,-1.168744197971764,100.57233708827663,-3.0204046699281633,1.4298556642835794,0.011338231100247,
0.92,35.22378295543632,-1.2857459939084053,-1.3011799158946906,98.21027048722318,-3.0205762428022784,1.429620642335519,0.013367852045017628,
0.94,36.92351439554186,-1.3296764035505433,-1.4383032001426979,95.80732289239951,-3.0207644168083405,1.4293607715072956,0.015612772730607103,
0.96,38.656781863435384,-1.3627804458283161,-1.5790180339864874,93.40011434349553,-3.020969074981715,1.429075540130063,0.018077635590577776,
0.98,40.42272017965025,-1.3838383228773137,-1.722193065415065,91.43934907818189,-3.0211898637445542,1.4287646504517169,0.02076527384443765,
1.0,42.220553162281924,-1.3917800260513447,-1.8666054942013897,89.4823322740461,-3.0214261767713153,1.4284280317759266,0.02367660202424055,
1.02,44.0497477709426,-1.3856421223393691,-2.011108010153757,88.74973138003081,-3.0216771404428395,1.4280658515901066,0.02681052400013418,
1.04,45.910016805905926,-1.3647154791910505,-2.1545354197565953,88.03597642780693,-3.0219416024375674,1.4276785216351486,0.03016388515935145,
1.06,47.80107620739418,-1.3282288715458719,-2.295394080904399,87.32032944769554,-3.0222181202276572,1.4272667054552295,0.033731411532217224,
1.08,49.72264103008703,-1.2755175910973822,-2.4320965742465512,86.60284117355748,-3.0225049518751272,1.4268313244932702,0.03750566106002534,
1.1,51.674425452797514,-1.2061144926884924,-2.5629891491244394,85.88357131553194,-3.0228000505114934,1.4263735611433268,0.04147700054638236,
1.12,53.65655692566115,-1.1198581058674935,-2.686925805347161,87.25418604028852,-3.0231010632221027,1.425894857064929,0.04563362307972162,
1.14,55.66966527731785,-1.0169625810735512,-2.802946450306721,89.07602914647468,-3.02340533329359,1.4253969048229735,0.04996162379236453,
1.16,57.71440282018506,-0.8975498300502236,-2.9094476050219473,90.56308464814954,-3.0237099036877746,1.4248816425353938,0.05444504817331876,
1.18,59.79135415228503,-0.7618196780611268,-3.004650840788375,92.04440642333387,-3.0240115252687145,1.4243512487770347,0.05906593592642144,
1.2,61.90110257631774,-0.6102698451796327,-3.0868566679683176,93.52666176586371,-3.0243066716876728,1.4238081333995223,0.06380439831877453,
1.22,64.04380055663813,-0.4436833045703116,-3.1537635006002835,92.8331594661343,-3.0245915626834767,1.423254924893844,0.06863872257310895,
1.24,66.21916106531997,-0.2631968168291433,-3.2031093873576717,92.09382532928203,-3.024862201069356,1.4226944537347779,0.07354550575860258,
1.26,68.4268876199484,-0.07052635770561541,-3.233416024286279,91.35309984319419,-3.0251144191760035,1.4221297262928914,0.07849986855734366,
1.28,70.66668295342771,0.1322266456238891,-3.24342762579642,90.61105742287417,-3.0253439337040606,1.4215638931588914,0.08347571504571571,
1.3,72.93824905441053,0.34265159664921985,-3.2321334102329837,89.86776073916755,-3.0255464092693014,1.4210002133467632,0.08844602526677137,
1.32,75.24158394553366,0.5581093706473286,-3.199210642986485,90.62310271396063,-3.0257175284861377,1.420442015092498,0.09338317522537781,
1.34,77.5769881753392,0.7758684605278764,-3.144588491220147,91.41203792265676,-3.0258530631132188,1.419892655575257,0.09825926621733347,
1.36,79.94476866245597,0.9930491257323629,-3.0680543096678767,92.20135941717572,-3.025948954484642,1.4193554793048213,0.10304646186659726,
1.38,82.34523226385409,1.2066120583441178,-2.969707803056159,92.99101087722684,-3.026001401506952,1.4188337741668133,0.10771734255309784,
1.4,84.77868580601134,1.413401648712229,-2.8499964726979234,93.78091736624356,-3.026006953765551,1.418330725514479,0.11224527479072041,
1.42,87.24543611763647,1.6101956701645088,-2.7097364208532566,94.57098625296513,-3.025962608226812,1.417849368897029,0.11660479082353428,
1.44,89.74579006327727,1.7937584270760474,-2.55012760493829,95.36110904378798,-3.025865907762026,1.4173925420935563,0.1207719730738856,
1.46,92.28005457704728,1.960896200375003,-2.372762732872908,96.15116410520159,-3.0257150394404015,1.4169628371943497,0.12472483750963863,
1.48,94.84853669561697,2.1085138372280565,-2.1796290496342454,96.94102019539964,-3.025508930274521,1.4165625535390811,0.12844370948263226,
1.5,97.45154358953901,2.2336713926810963,-1.9731023445419844,97.73054067099996,-3.0252473378605074,1.4161936523822853,0.13191158514118842,
1.52,100.08923348293733,2.3335714245266974,-1.7558356227980472,97.76538462896302,-3.0249309342394777,1.4158577135681432,0.1351144762798301,
1.54,102.76161193260931,2.4055717331459343,-1.5309108993186107,97.77959851349061,-3.024561381923029,1.4155558937030743,0.13804174310467618,
1.56,105.46868069237996,2.4474770516150928,-1.3018653442228645,97.79240278918897,-3.0241413917010025,1.4152888906952246,0.14068637657769745,
1.58,108.21044150191783,2.4575258645910707,-1.0725059966227635,97.80371882760113,-3.023674761108717,1.4150569150794992,0.14304522697858024,
1.6,110.98689610186543,2.4344073224882368,-0.8468488258991009,97.81348615292461,-3.023166391714898,1.4148596685783443,0.1451191755020376,
1.62,113.79804624126365,2.3773029914815544,-0.6290496618514629,97.82166517892497,-3.022622282414404,1.4146963308499796,0.14691324190155605,
1.64,116.64389367660259,2.2859248705376842,-0.4233265799870396,97.82823861560081,-3.0220494961837137,1.4145655553088647,0.14843662183019032,
1.66,119.52444016198706,2.1605490826156966,-0.23387481153887552,97.83321135539882,-3.021456098180151,1.4144654747928747,0.14970264848447407,
1.68,122.43968743008547,2.0020453043941417,-0.06477545877218838,97.83660875979983,-3.020851063617462,1.4143937177097745,0.15072867432093529,
1.7,125.38963716373286,1.8119017752627313,0.08010042204211766,97.83847338025535,-3.0202441545357885,1.4143474351201701,0.1515358699834275,
1.72,128.37429095827724,1.5922453604292426,0.1971905273198245,97.83886028865054,-3.0196457654034594,1.4143233390044305,0.152148939145776,
1.74,131.39365027499053,1.3458556503272445,0.28334069509048326,97.8378313237688,-3.0190667384350713,1.414317751717246,0.15259574972504386,
1.76,134.4477163860984,1.0761714977356238,0.33590263336959364,97.83544868078219,-3.0185181505703222,1.41432666635746,0.15290688383677367,
1.78,137.5364903122219,0.7872877752458576,0.35282745060770215,97.83176837605166,-3.018011075206891,1.4143458174760202,0.1531151109199277,
1.8,140.6599727532488,0.4839395501951308,0.3327523077034388,97.82683417156521,-3.0175563229835305,1.414370761217012,0.15325479062464412,
1.82,143.81802376637617,0.17146224837895002,0.2750663120314172,97.1111284615111,-3.017164166105762,1.4143969636622542,0.15336121448930834,
1.84,147.01035844267096,-0.14420131395504043,0.18000574841634268,96.37175859750292,-3.0168440501301546,1.4144198961642742,0.15346989519947096,
1.86,150.23668683319985,-0.45657767064898996,0.04872804421710131,95.63066038282253,-3.016604306631221,1.4144351359475347,0.15361581287495454,
1.88,153.49671816400866,-0.7588226288378881,-0.11667760887385636,94.88782816142502,-3.016451875586006,1.4144384689563647,0.1538326402934731,
1.9,156.7901100252613,-1.0438584965947033,-0.3131829349678681,93.88651331130313,-3.0163920458701874,1.4144259921976483,0.15415196656083216,
1.92,160.11665814178363,-1.3045556106955578,-0.5368650243436051,93.84343608904312,-3.0164282245015346,1.4143942125113138,0.15460254049383296,
1.94,163.47635309053734,-1.5340353061343754,-0.7830025828810518,93.83064902835154,-3.0165617507872144,1.4143401372358888,0.15520956559951002,
1.96,166.86919075839486,-1.7257197582242072,-1.0460996649690617,93.81644704333418,-3.0167917517138916,1.4142613560260653,0.1559940531463432,
1.98,170.29516610253927,-1.8735590988994784,-1.319980348718072,93.80077762987827,-3.0171150485677263,1.4141561108750231,0.15697225417651822,
2.0,173.75427310726351,-1.972287034725976,-1.597914401479224,93.78360943462435,-3.0175261233081496,1.414023351279593,0.15815519318704802,
2.02,177.24665600468254,-2.017703251933165,-1.8728528777658762,94.53018773134893,-3.0180171508862736,1.4138627716236563,0.1595483263400227,
2.04,180.77261433367696,-2.0069123881642215,-2.137580228627109,95.30210773511509,-3.0185781014900535,1.413674828090233,0.16115134639422415,
2.06,184.3324519185388,-1.9383431891043408,-2.3847903277242852,96.07303116339853,-3.0191969056851486,1.4134607361807627,0.1629581286368463,
2.08,187.92647170538535,-1.8119749476926659,-2.6073489202685454,96.84301060923947,-3.0198596848630856,1.4132224469860821,0.16495683443990614,
2.1,191.5549757704675,-1.6294877211572154,-2.798528958416508,97.61212063183825,-3.0205510456834097,1.4129626012662748,0.16713018291872314,
2.12,195.21811366811983,-1.394301276341455,-2.9521313066297576,97.61292873589835,-3.0212544336182496,1.4126844617476468,0.1694558910879719,
2.14,198.91587713005813,-1.1116214573959216,-3.0628331718478745,97.58483377206421,-3.0219525403963017,1.4123918245199356,0.17190727899487168,
2.16,202.64825157254762,-0.7884817026199757,-3.1265884973318103,97.55576242967908,-3.0226277580614678,1.412088909524523,0.17445404439884554,
2.18,206.4152216219001,-0.43350431955216023,-3.1407424679438303,97.52580504869499,-3.023262665280921,1.411780233971449,0.17706318064871562,
2.2,210.2167712080446,-0.056641467513149135,-3.1042035735989426,97.49501792427263,-3.0238405318964157,1.411470472718618,0.17970000895527846,
2.22,214.05288366554313,0.3311316565031619,-3.017570979124798,97.46341609931547,-3.0243458270557815,1.4111643099661708,0.18232929291875083,
2.24,217.9235418388561,0.7181781122633135,-2.8832010581625473,97.43097045236783,-3.0247647152971195,1.4108662871689348,0.18491639790093678,
2.26,221.82872818829188,1.092599617648593,-2.705204584182055,97.39760964522341,-3.0250855243548798,1.4105806524632312,0.18742845379474493,
2.28,225.76842489280594,1.442657844036951,-2.4893693125317022,97.36322687168149,-3.0252991682732158,1.41031121710184,0.1898354773524696,
2.3,229.7426139457089,1.7571976500700954,-2.2430064597049735,97.32769073700801,-3.025399509685754,1.4100612243746515,0.1921114097225934,
2.32,233.75142975774088,2.0260991442689456,-1.9747942624282155,98.06298284269275,-3.025383644385857,1.409833236562483,0.19423502417330987,
2.34,237.7951651142323,2.2406972130824654,-1.6943525248266198,98.82787034913487,-3.0252520912957164,1.4096290455404876,0.19619065844822134,
2.36,241.87411892037073,2.3939458136512903,-1.4118477847448632,99.59143854586566,-3.025008885838091,1.4094496092422044,0.19796875100762482,
2.38,245.98859020115302,2.4806919359989164,-1.137718209595072,100.3535570316421,-3.024661565303666,1.4092950170573375,0.1995661565527148,
2.4,250.13887809908874,2.497897693987218,-0.882273822763605,101.11413173984681,-3.024221037692345,1.4091644866002382,0.2009862216003685,
2.42,254.3249759281397,2.444671302770437,-0.6552405695812337,100.32419201368091,-3.0237013320007526,1.4090563924754904,0.2022386152464593,
2.44,258.546558784329,2.322388299152367,-0.46547579605018957,99.46772402827479,-3.0231192307118575,1.4089683261924806,0.20333892277283183,
2.46,262.8032889790646,2.135048423551471,-0.3205466726723611,98.60931478009687,-3.0224937751123564,1.4088971897700922,0.20430798492892271,
2.48,267.0948285988255,1.8890796239504775,-0.2262780799783441,97.74907135626192,-3.0218456608334177,1.4088393192689748,0.2051710118178589,
2.5,271.42083942115624,1.5931415735940098,-0.18646636548389614,96.88710332233529,-3.021196543582364,1.4087906332867786,0.20595650996756062,
2.52,275.7811362365465,1.2579220057399216,-0.20268455718614511,96.80032353896591,-3.0205682781883634,1.408746800812768,0.2066950655088632,
2.54,280.1756931961054,0.895741021751958,-0.27417541935608564,96.74589133944067,-3.0199821208556052,1.4087034215828602,0.20741803458070365,
2.56,284.6044904837935,0.5200911922152356,-0.39785222189722863,96.69006145780976,-3.0194579249500233,1.4086562110009528,0.20815620014771374,
2.58,289.06750758368565,0.14524498573502614,-0.5683902881439519,96.63281626151567,-3.019013361721636,1.4086011822484181,0.20893844858781763,
2.6,293.5647231638356,-0.2142641883279538,-0.7784025153680135,96.5741155405067,-3.018663200637436,1.408534817698623,0.2097905219276655,
2.62,298.0961149719848,-0.5442232713893279,-1.0187058091984644,96.51390640416479,-3.0184186840316674,1.408454221736973,0.21073390110563583,
2.64,302.6616597479527,-0.8313538067806235,-1.2786715651627676,96.4521362453259,-3.0182870286154566,1.408357247577168,0.2117848718328862,
2.66,307.26133315693454,-1.0639316394884928,-1.5466506921202336,96.38876642729709,-3.0182710822203926,1.4082425915343737,0.2129538185840083,
2.68,311.895109747143,-1.2323789688172522,-1.8104609217627852,96.3237841322128,-3.018369158075399,1.4081098494488695,0.2142447840973898,
2.7,316.56296293423634,-1.3297917174954315,-2.0579210991693224,96.2572100132933,-3.0185750611790128,1.407959531519524,0.215655321607202,
2.72,321.26501934205567,-1.3523848166372192,-2.27748951992748,96.97060854303258,-3.018878313257665,1.4077930335087112,0.2171766560183019,
2.74,326.0015658538296,-1.2997818588208134,-2.458780586567175,97.71936925659259,-3.019264572550446,1.4076125645312547,0.21879415520817408,
2.76,330.7728943128248,-1.17501570413994,-2.5929949947695037,98.46059333848729,-3.019716226605676,1.4074210351109822,0.22048808908553041,
2.78,335.57928831852826,-0.9844974773868834,-2.673460918569716,99.16973179730196,-3.020213138100385,1.407221909346602,0.22223465280307128,
