Temps,Position en z,Acceleration en x avec g,Acceleration en y avec g,Acceleration en z avec g,Angle phi,Angle theta,Angle psi,
0.0,-0.0,-6.817293572131451e-17,-1.367341682590657,9.729141608459434,-3.01941960595019,1.4311699866353498,-4.985801031981232e-17,
0.02,0.0,-6.817293572131451e-17,-1.367341682590657,9.729141608459434,-3.01941960595019,1.4311699866353498,-4.985801031981232e-17,
0.04,0.0,-6.817293572131451e-17,-1.367341682590657,9.729141608459434,-3.01941960595019,1.4311699866353498,-4.985801031981232e-17,
0.06,0.0006113729580661594,-6.817293570821956e-17,-1.3673416823280118,12.815010799336985,-3.01941960595019,1.4311699866353498,-4.985801031981232e-17,
0.08,0.00443205739407769,-6.817293562638452e-17,-1.36734168068665,22.84518870120791,-3.01941960595019,1.4311699866353498,-4.985801031981232e-17,
0.1,0.01566402201995313,-6.817293538580763e-17,-1.3673416758614096,34.03532204232874,-3.01941960595019,1.4311699866353498,-4.985801031981232e-17,
0.12,0.04040191186881593,-6.817293485594803e-17,-1.367341665234038,53.62214912589184,-3.01941960595019,1.4311699866353498,-4.985801031981232e-17,
0.14,0.08580706323648926,-6.817293388341743e-17,-1.367341645728033,70.20518344063902,-3.01941960595019,1.4311699866353498,-4.985801031981232e-17,
0.16,0.15845017161257316,-6.81729323274784e-17,-1.3673416145206296,86.81054748308546,-3.01941960595019,1.4311699866353498,-4.985801031981232e-17,
0.18,0.2647773950016087,-6.817293005006105e-17,-1.3673415688425665,102.76400691342407,-3.01941960595019,1.4311699866353498,-4.985801031981232e-17,
0.2,0.41097605961160527,-6.817292691863935e-17,-1.3673415060357743,118.0622846378739,-3.01941960595019,1.4311699866353498,-4.985801031981232e-17,
0.22,0.6003721614072629,-6.817292286197394e-17,-1.3673414246714082,119.57247050576919,-3.01941960595019,1.4311699866353498,-4.985801031981232e-17,
0.24,0.8335541615322478,-6.817291786746063e-17,-1.3673413244966663,121.03907582344343,-3.01941960595019,1.4311699866353498,-4.985801031981232e-17,
0.26,1.1111033002476165,-6.817291192264986e-17,-1.3673412052618485,122.50820753208288,-3.01941960595019,1.4311699866353498,-4.985801031981232e-17,
0.28,1.433649153163581,-6.817290501405674e-17,-1.3673410666964891,124.21878579451592,-3.01941960595019,1.4311699866353498,-4.985801031981232e-17,
0.3,1.8018698736587468,-6.817289712715599e-17,-1.3673409085092552,125.93335530838722,-3.01941960595019,1.4311699866353498,-4.985801031981232e-17,
0.32,2.216271982511488,-6.817288825109845e-17,-1.3673407304825451,126.77771160105746,-3.01941960595019,1.4311699866353498,-4.985801031981232e-17,
0.34,2.6771891879219814,-6.817287837873644e-17,-1.3673405324729988,127.61914111610916,-3.01941960595019,1.4311699866353498,-4.985801031981232e-17,
0.36,3.184954964167251,-6.817286750292729e-17,-1.3673403143373553,128.4620264111725,-3.01941960595019,1.4311699866353498,-4.985801031981232e-17,
0.38,3.739903362785732,-6.817285561651597e-17,-1.3673400759321075,129.30637128027044,-3.01941960595019,1.4311699866353498,-4.985801031981232e-17,
0.4,4.342369014082624,-6.817284271233504e-17,-1.3673398171134972,130.15217953064445,-3.01941960595019,1.4311699866353498,-4.985801031981232e-17,
0.42,4.992677634208537,-6.8172828783408e-17,-1.3673395377415982,130.95153239585392,-3.01941960595019,1.4311699866353498,-4.985801031981232e-17,
0.44,5.691145956101611,-6.81728138229508e-17,-1.3673392376803422,131.75195157211317,-3.01941960595019,1.4311699866353498,-4.985801031981232e-17,
0.46,6.438091202394054,-6.817279782416884e-17,-1.3673389167934502,132.55376165084866,-3.01941960595019,1.4311699866353498,-4.985801031981232e-17,
0.48,7.23385492196288,-6.817278077974648e-17,-1.3673385749341933,133.47696768051173,-3.01941960595019,1.4311699866353498,-4.985801031981232e-17,
0.5,8.078803192291485,-6.817276268184277e-17,-1.3673382119453057,134.4027076135861,-3.01941960595019,1.4311699866353498,-4.985801031981232e-17,
0.52,8.972018930953533,-6.81727435501006e-17,-1.367337828220764,128.84928162760093,-3.01941960595019,1.4311699866353498,-4.985801031981232e-17,
0.54,9.91096296091947,-4.738267954102059,-1.916499971410053,121.58213737683958,-3.0195850335014884,1.4310845536027146,0.0006751548746212825,
0.56,10.89318002943968,-9.506586102464993,-2.833647435776725,116.4400368214495,-3.0200911544946143,1.4308227497504038,0.0027450438926678138,
0.58,11.916748989499386,-10.036712249792343,-3.439529835375954,111.8391132400226,-3.0209515737814883,1.4303768336661988,0.0062724456432656575,
0.6,12.979856232119978,-10.500558481966557,-4.093299802762719,107.22303078330853,-3.022177399942405,1.4297402929794094,0.011311072183042899,
0.62,14.081753185025775,-10.911326085937029,-4.797784472069857,107.97856345908527,-3.0237779145969563,1.428907507382441,0.017908287689106614,
0.64,15.222766349096853,-11.266734569422496,-5.556802785723636,108.77359384563843,-3.02576076320436,1.4278736522262874,0.026105953240359303,
0.66,16.40323114260965,-11.55434504744216,-6.370158920315596,109.55256206027231,-3.028131819669399,1.4266347654985985,0.03593997621801276,
0.68,17.623456587522973,-11.756708762286639,-7.236007044382809,110.18944447409724,-3.0308948950081405,1.4251878910827673,0.04743926683665023,
0.7,18.88372488467932,-11.85475848237087,-8.15092271803429,110.80699818919109,-3.0340514096890336,1.4235312339605906,0.060624603157754205,
0.72,20.183758632393133,-11.82645642787836,-9.10610652941842,108.59002704193747,-3.0375999933498097,1.4216643458343454,0.07550725446401066,
0.74,21.522714554871378,-11.645130690293124,-10.088762901700601,106.31787687581688,-3.041535915671697,1.4195883921631698,0.09208693650379637,
0.76,22.899728176818662,-11.290535666868221,-11.08683540783665,103.96572685725052,-3.0458507086941746,1.4173063091497748,0.11035062423904804,
0.78,24.313908436242237,-10.745628263433716,-12.085959685751027,101.53413684683349,-3.050531862537207,1.4148229118476114,0.1302717170105263,
0.8,25.764349173134722,-9.995991140030359,-13.069474880846965,99.08389572576529,-3.0555625527685786,1.4121449772607204,0.15180935523261188,
0.82,27.250590828479055,-9.03221359726286,-14.022680036879812,98.89595731506829,-3.060921451597375,1.409281275127699,0.17490809135873364,
0.84,28.772626312154188,-7.851271493085058,-14.930228282150335,98.72970127706628,-3.0665826784794255,1.4062425150259128,0.19949815947277094,
0.86,30.330451676458278,-6.45060362735776,-15.771375307415179,98.55807853272256,-3.072515682469937,1.403041330624578,0.2254953608227486,
0.88,31.924060088814215,-4.829039684009448,-16.522390257001817,98.38536911200639,-3.0786850496069147,1.3996923085810924,0.25280050700896883,
0.9,33.553441655295366,-2.9843566261843835,-17.155555498595625,98.21658267482069,-3.08505010927524,1.396212132656732,0.28129786608138724,
0.92,35.218109682111155,-0.9347814564589685,-17.646495619237943,95.65228954899789,-3.0915651886198923,1.392619413536021,0.31085598564300376,
0.94,36.91709424631166,1.285985232698763,-17.970201096354376,93.06281976167128,-3.098180314781778,1.388934326217451,0.3413299724566677,
0.96,38.649415575427135,3.644137518833414,-18.108708753985894,90.48993384196521,-3.104841765458734,1.3851783500129096,0.37256294917209565,
0.98,40.41417991325976,6.098624955703679,-18.04955412672493,88.38909760208473,-3.1114927843734828,1.3813739528580764,0.4043879636851597,
1.0,42.21058106722061,8.603189553300668,-17.78560972703691,86.32176874157499,-3.118074418400622,1.3775442446886217,0.43663020218807547,
1.02,44.03805321167093,11.108662543420005,-17.317147527513917,85.51196218792248,-3.1245264400624824,1.373712620848364,0.469109389448016,
1.04,45.89627342614587,13.564895102725098,-16.65037090013713,84.7564871585119,-3.1307883048304745,1.369902407451225,0.5016423212978072,
1.06,47.78492112189889,15.92229950070762,-15.794742716439462,84.03593201360776,-3.1368001300044925,1.3661365323667825,0.5340453924775181,
1.08,49.703674344747796,18.133275682282033,-14.765195162476486,83.3505590716695,3.0276596398088875,1.3624372194364895,0.5661371630697174,
1.1,51.65221010804803,20.15389683754748,-13.581519447155388,82.69951669643321,3.135341984827742,1.3588257123471321,0.5977409215632076,
1.12,53.630613670764454,21.95654728514945,-12.266031595634807,84.1727732941138,3.1304190494110076,1.355322182376052,0.6286859022452019,
1.14,55.63946596861353,23.52962509233618,-10.8412138300111,86.12951687866357,3.1259633151696913,1.3519458252286767,0.6588070044764895,
1.16,57.679369572242074,24.8395062281561,-9.337936307280621,87.78043206540698,3.122021729598213,1.3487145956970783,0.6879477921096334,
1.18,59.750860264621345,25.850884357013303,-7.783389307519016,89.45014016667402,3.1186359281622518,1.3456448448725646,0.7159646131398106,
1.2,61.85447307018434,26.55345755530341,-6.2028119371860555,91.14037464906812,3.1158417578908053,1.3427512525211378,0.742728308074543,
1.22,63.99031982075853,26.942201757134523,-4.617538122508334,90.66920923907293,3.1136688858590613,1.3400467823109128,0.7681257383528299,
1.24,66.1580816706325,27.016556041765316,-3.047910601960604,90.16118211508594,3.112140361404448,1.337542619323834,0.7920613942266355,
1.26,68.35743328403659,26.785557067897916,-1.51387881147674,89.65541682727817,3.111272379094257,1.335248147842812,0.8144585325127044,
1.28,70.58805171513703,26.264677566527258,-0.031822850613341114,89.14694669705605,3.1110741705115346,1.3331709538497531,0.8352599303711381,
1.3,72.84961674800874,25.474056736030434,1.3855419608536221,88.63122844074468,3.111547964659933,1.3313168367613197,0.854428349450201,
1.32,75.14210268566971,24.438676360736494,2.728794205292494,89.60411620782575,3.11268902508218,1.329689834277513,0.8719466661463073,
1.34,77.46578469182566,23.184893844505297,3.992321250911192,90.59719775894872,3.114485661107427,1.3282922771971433,0.8878177131637911,
1.36,79.82094785375656,21.717394863650647,5.1694550829819,91.57450122108115,3.1169177431279738,1.3271248271530187,0.9020657219376833,
1.38,82.20788107048566,20.06703610528245,6.262762868598239,92.53400765046688,3.119956787072024,1.326186493270136,0.9147359650909124,
1.4,84.62687730913684,18.27521572702547,7.273053773822417,93.47460765084,3.1235674488550336,1.3254746251637157,0.9258925893725665,
1.42,87.07823374636523,16.366276464053684,8.201227157188766,94.3958782167847,3.1277075406791313,1.3249849081916953,0.9356178767847241,
1.44,89.56225185468433,14.362375167085316,9.04770635229009,95.29802577328405,3.1323280034719847,1.3247113568285533,0.9440114106502265,
1.46,92.07923743266522,12.283626343300607,9.81185073283665,96.18181369043133,3.1373728840144737,1.324646310030691,0.9511891008091118,
1.48,94.62950057728997,10.148036083529451,10.491487474117871,97.0484703479205,-2.985523986152039,1.3247804331617694,0.9572820506765845,
1.5,97.21335559763268,7.971596324573936,11.082585212564071,97.8995782509311,-3.1347076200968296,1.3251027313179695,0.9624352431361145,
1.52,99.83097448809878,5.76843516425162,11.578427277346062,97.98274298120913,-3.128793749354396,1.325600575654927,0.9668060313558379,
1.54,102.48238299748184,3.5515214582348587,11.97008196055276,98.03403328309739,-3.122747156590367,1.3262597428238427,0.9705624104527879,
1.56,105.16760616526484,1.3356826870640903,12.253514034053662,98.07474139845186,-3.116656251048255,1.327064733139862,0.9738798392233294,
1.58,107.88667148640194,-0.8613941549951947,12.419228135473723,98.10657199606113,-3.11061405905934,1.3279990637922752,0.9769380395944468,
1.6,110.63960879775837,-3.030561713871137,12.451916177237543,98.1307278878885,-3.1047175899035824,1.329045177573866,0.9799194409926956,
1.62,113.42645007566605,-5.1615297294032665,12.338134847643769,98.14789620352097,-3.09906689821091,1.3301844323759011,0.9830071250533708,
1.64,116.24722901408339,-7.235923160711334,12.065667512568348,98.15816895488405,-3.093763604087712,1.3313972941609469,0.9863817243074143,
1.66,119.10198057433504,-9.231381235125275,11.62337876890797,98.16099540742218,-3.088909084854479,1.332663563360169,0.9902180924734859,
1.68,121.99074051825858,-11.120772706608207,11.002063958474034,98.15519620552323,-3.08460233621989,1.3339626267301532,0.9946818202683992,
1.7,124.91354493148353,-12.871483938739384,10.19542054313613,98.13905076504051,-3.0809375111765243,1.3352737297577215,0.9999256655129369,
1.72,127.87042974318615,-14.445060327102361,9.201111288430978,98.11046387785657,-3.0780011663915547,1.336576263376357,1.0060859812128122,
1.74,130.86143024810684,-15.797349790445034,8.021901900937193,98.06720986192526,-3.0758692721062113,1.33785005764544,1.0132792385948055,
1.76,133.88658062693264,-16.879226078756567,6.667059925832473,98.00724811816842,-3.074604057008353,1.3390756827182946,1.021598715219045,
1.78,136.94591346771435,-17.638062473596584,5.153447407896493,97.92908041429666,-3.0742508047000956,1.3402347502016672,1.0311114602167806,
1.8,140.03945933211443,-18.02063447936331,3.505675992200815,97.83209806428093,-3.0748348238502676,1.3413101685346231,1.0418558259742208,
1.82,143.16710808089877,-17.976121160197906,1.7576360636596233,97.00737818332642,-3.076358737125484,1.3422863618900818,1.0538395925632864,
1.84,146.32860421295675,-17.45909714150109,-0.04698431364736688,96.14412547455368,-3.0788002230878666,1.3431494789859577,1.0670386431604375,
1.86,149.52368448141965,-16.43616135649059,-1.855604486201423,95.26798104320028,-3.082110554337153,1.3438875587799466,1.0813965084310098,
1.88,152.75208180403922,-14.88999408767727,-3.608426192100147,94.38418397322916,-3.0862141213622656,1.3444906482341514,1.0968248509463194,
1.9,156.01347492557113,-12.823263404758904,-5.240749819866347,93.24249669138429,-3.0910091029423765,1.344950872450984,1.1132049381748246,
1.92,159.30767547742124,-10.26237762298214,-6.68699993123801,93.06693547110143,-3.096369410432911,1.345262457220091,1.1303901552070443,
1.94,162.63468384032365,-7.258930582348858,-7.884888208581158,92.9369802668074,-3.1021479653307993,1.3454216974171693,1.1482095986955076,
1.96,165.9945020335838,-3.888005602280241,-8.778555552857497,92.82776852669303,-3.108181142688586,1.3454269136926735,1.1664725358131578,
1.98,169.3871274688993,-0.24639357789825267,-9.323860932156808,92.7447445429661,-3.1142942823934123,1.3452783885460524,1.184973743132657,
2.0,172.8125528895735,3.5514015232800102,-9.492493357015736,92.69135886542796,-3.12030805941938,1.3449782626611766,1.2034996772732454,
2.02,176.2709156043183,7.379770196412892,-9.274745484219517,93.43387279952289,-3.1260453230781033,1.344530429141483,1.2218351943717816,
2.04,179.76250250714858,11.110322997852194,-8.680156983326588,94.23226121916562,-3.1313379733363766,1.3439404451153119,1.2397705307075462,
2.06,183.287601116251,14.61880646937492,-7.736440619160586,95.05607754581702,-3.1360335105099857,1.3432154693787366,1.2571083321802636,
2.08,186.84649457493222,17.791709237740292,-6.488049292304278,95.89922197447498,-3.1400009055058136,1.3423642231537918,1.2736704889936572,
2.1,190.43946179091128,20.531903907461,-4.992916863801247,96.7542716022256,2.92028485502175,1.3413969688519405,1.289304502196038,
2.12,194.06662807316962,22.761944149962073,-3.318049908063299,96.84581087308901,3.13782275683736,1.340325501038307,1.3038891312742418,
2.14,197.7279601725653,24.425780001512003,-1.535470773803273,96.90566682712556,3.1365455095930876,1.3391631424456896,1.3173391151070577,
2.16,201.4234159132894,25.48903560625028,0.2829376563048749,96.95545424190686,3.1362272216420974,1.3379247668773149,1.3296086515598615,
2.18,205.15294994431622,25.940722767810378,2.067916106563949,96.990785846656,3.136844337872246,1.336626735028609,1.3406935310581334,
2.2,208.9165142366026,25.78756516037283,3.7574513005584143,97.00946414074092,3.1383423689696657,1.33528673455566,1.3506318048035129,
2.22,212.71405857986196,25.052125054122452,5.299392476695687,97.01152855688781,3.1406387731841185,1.3339236145658608,1.359502905035966,
2.24,216.54553113681467,23.769480203377647,6.652535953700509,96.99900349521629,-2.905142606721249,1.3325571588114293,1.3674252607677426,
2.26,220.41087905887423,21.984631775084747,7.787003068654403,96.97539678715712,-3.136005748783433,1.3312077929006578,1.3745524793383896,
2.28,224.31004916237976,19.750621025641646,8.683784191204996,96.94502702608945,-3.1320296670370493,1.329896227896153,1.3810682137677142,
2.3,228.24298866055864,17.127412749574702,9.33360183214346,96.9122770969447,-3.1277817902044953,1.3286430476173303,1.3871798806220828,
2.32,232.20979592724407,14.181912796576377,9.735634429882698,97.65299807464311,-3.1234181940812293,1.3274682524210575,1.3931114311414874,
2.34,236.2107269821309,10.986686008934083,9.895534033347293,98.42858621761822,-3.119094456634198,1.3263907917651145,1.3990954333208392,
2.36,240.24604643601933,7.619825483984771,9.822968444299013,99.20911847210792,-3.1149607585743047,1.3254280949525297,1.4053647338568616,
2.38,244.31602239391512,4.167446570539505,9.529600127016085,99.9936384847579,-3.1111572960875478,1.3245955618906393,1.4121439011367833,
2.4,248.42092725995846,0.722316885844537,9.02866582649092,100.77954740736388,-3.1078100501126276,1.3239060558935256,1.419640705079062,
2.42,252.56073789539326,-2.6164516374290905,8.334383550969573,100.01408437094338,-3.1050269204944394,1.323369449323416,1.4280378875918172,
2.44,256.73512418041463,-5.743411240582073,7.4631525185603405,99.17676064059641,-3.10289423926163,1.3229922018853246,1.4374854135615682,
2.46,260.94374961538966,-8.550698526877895,6.435283370122716,98.32774582238315,-3.101473804848361,1.3227770070135978,1.4480936301271192,
2.48,265.18628394130155,-10.932907060260224,5.276156907524481,97.46359036209117,-3.1008005217452843,1.322722515100444,1.4599276415625284,
2.5,269.46240314057127,-12.792192711581782,4.018153844175016,96.58242972429196,-3.100880732448716,1.3228231421977765,1.4730031775694923,
2.52,273.77193991184447,-14.044665412231733,2.7022270311198255,96.4613117031825,-3.101691368838554,1.3230689790513621,1.4872842489496296,
2.54,278.11488908749556,-14.643558440159067,1.3838740500193312,96.36011391198284,-3.1031798960087196,1.3234462101436186,1.5026834146962282,
2.56,282.4912562647961,-14.555325081859255,0.122554673664657,96.24984776419241,-3.1052654632758614,1.323937451804847,1.519064133973879,
2.58,286.90105096039895,-13.77066356712659,-1.0194404583638588,96.13679842624362,-3.107841537859088,1.3245216412670457,1.5362445784548964,
2.6,291.344285843005,-12.317337000008912,-1.9750321496124505,96.02808181596575,-3.110779705910288,1.3251742709500287,1.5540038020058435,
2.62,295.8209755682082,-10.259738378936369,-2.678247048060065,95.93060008171692,-3.1139346850702494,1.325867993471715,1.572090305497575,
2.64,300.33113548332636,-7.696116250302538,-3.071544118652572,95.84993657972161,-3.1171505607449195,1.3265734177958919,1.59023249167335,
2.66,304.8747802583643,31349.51264603473,-3.112393770512239,-58716.70196628328,-3.120268051421888,1.3272600796205505,1.608150576791034,
2.68,309.45192249300055,-29880.478676978382,-2.7790782126275406,-2651.156874478984,-3.123132476367006,1.3278975608656662,1.6255694077025822,
2.7,314.0625713507829,-1473.6973754741157,-2.0748556229587796,95.72696159224681,-3.125601980732016,1.3284567155946692,1.642231539981101,
2.72,318.7068831073473,4.832298561580061,-1.0299437553324655,96.49835925250787,-3.127555477310262,1.32891094188786,1.657909873257765,
2.74,323.3851675155793,7.792192410189858,0.29717013052657404,97.3112314941785,-3.1288996589066596,1.3292369225891925,1.6724172843661045,
2.76,328.0977350557954,10.419889380876478,1.8293990286044546,98.11963076345623,-3.129574625428229,1.32941566788367,1.6856158185776968,
2.78,332.84488141952005,12.598650784917526,3.4750847281528827,98.88124528308128,-3.129557749620031,1.3294340122609098,1.6974259983157431,
2.8,337.6268863081586,14.245751013586274,5.130337271047277,99.62312915125597,-3.1288653187688205,1.3292854900079745,1.707832225959431,
2.82,342.44371502742126,15.307849181167322,6.688394195362614,98.7756978861317,-3.127551741804216,1.3289707865667748,1.7168847151651936,
2.84,347.2950045470503,15.758190967433423,8.048603066773138,97.83120233220093,-3.125706335836889,1.3284978343893528,1.7246981242165296,
