Temps,Position en z,Acceleration en x avec g,Acceleration en y avec g,Acceleration en z avec g,Angle phi,Angle theta,Angle psi,
0.0,-0.0,-6.816450259884484e-17,-1.3671725398106787,9.727938095044017,-3.01941960595019,1.4311699866353498,-4.985801031981232e-17,
0.02,0.0,-6.816450259884484e-17,-1.3671725398106787,9.727938095044017,-3.01941960595019,1.4311699866353498,-4.985801031981232e-17,
0.04,0.0,-6.816450259884484e-17,-1.3671725398106787,9.727938095044017,-3.01941960595019,1.4311699866353498,-4.985801031981232e-17,
0.06,0.000611822553592966,-6.816450258574002e-17,-1.3671725395478358,12.816488043020358,-3.01941960595019,1.4311699866353498,-4.985801031981232e-17,
0.08,0.004434915555988729,-6.816450250385204e-17,-1.3671725379054123,22.85211841755857,-3.01941960595019,1.4311699866353498,-4.985801031981232e-17,
0.1,0.015673356719231847,-6.816450226313248e-17,-1.3671725330773101,34.0458493822442,-3.01941960595019,1.4311699866353498,-4.985801031981232e-17,
0.12,0.04042498687256972,-6.816450173296983e-17,-1.3671725224438604,53.64350073602337,-3.01941960595019,1.4311699866353498,-4.985801031981232e-17,
0.14,0.08585457582988143,-6.816450075989974e-17,-1.3671725029270347,70.22853579463508,-3.01941960595019,1.4311699866353498,-4.985801031981232e-17,
0.16,0.15853505144004038,-6.816449920313466e-17,-1.3671724717030638,86.8383515040172,-3.01941960595019,1.4311699866353498,-4.985801031981232e-17,
0.18,0.264915050862506,-6.816449692454931e-17,-1.3671724260015738,102.79536522883015,-3.01941960595019,1.4311699866353498,-4.985801031981232e-17,
0.2,0.4111841329282627,-6.816449379156763e-17,-1.367172363163493,118.09693348181978,-3.01941960595019,1.4311699866353498,-4.985801031981232e-17,
0.22,0.6006665614459168,-6.816448973298625e-17,-1.3671722817606984,119.5890837417895,-3.01941960595019,1.4311699866353498,-4.985801031981232e-17,
0.24,0.8339477441323919,-6.81644847362661e-17,-1.3671721815416942,121.05608357162438,-3.01941960595019,1.4311699866353498,-4.985801031981232e-17,
0.26,1.111609155056097,-6.816447878895243e-17,-1.3671720622566759,122.52561081212934,-3.01941960595019,1.4311699866353498,-4.985801031981232e-17,
0.28,1.4342806928478944,-6.816447187755325e-17,-1.3671719236350355,124.23706510518208,-3.01941960595019,1.4311699866353498,-4.985801031981232e-17,
0.3,1.8026408599459387,-6.816446398753553e-17,-1.367171765385284,125.95209702862576,-3.01941960595019,1.4311699866353498,-4.985801031981232e-17,
0.32,2.2171960803067057,-6.816445510805197e-17,-1.3671715872898589,126.79492958438202,-3.01941960595019,1.4311699866353498,-4.985801031981232e-17,
0.34,2.67827987260276,-6.81644452319589e-17,-1.3671713892054786,127.6365864108462,-3.01941960595019,1.4311699866353498,-4.985801031981232e-17,
0.36,3.186225845637717,-6.816443435211062e-17,-1.3671711709888228,128.47969960744706,-3.01941960595019,1.4311699866353498,-4.985801031981232e-17,
0.38,3.7413681857875565,-6.816442246134907e-17,-1.3671709324963224,129.32427297025907,-3.01941960595019,1.4311699866353498,-4.985801031981232e-17,
0.4,4.344041658506982,-6.816440955250384e-17,-1.3671706735841607,130.17031030858402,-3.01941960595019,1.4311699866353498,-4.985801031981232e-17,
0.42,4.994572088665952,-6.816439561859597e-17,-1.367170394112361,130.96975147057702,-3.01941960595019,1.4311699866353498,-4.985801031981232e-17,
0.44,5.693276313093514,-6.816438065283903e-17,-1.3671700939448082,131.77038781623014,-3.01941960595019,1.4311699866353498,-4.985801031981232e-17,
0.46,6.440471682764022,-6.816436464843563e-17,-1.3671697729451675,132.57241563064008,-3.01941960595019,1.4311699866353498,-4.985801031981232e-17,
0.48,7.2364999518051345,-6.816434759806557e-17,-1.367169430966618,133.4962426908814,-3.01941960595019,1.4311699866353498,-4.985801031981232e-17,
0.5,8.08172741615685,-6.81643294938831e-17,-1.3671690678517974,134.42223445352082,-3.01941960595019,1.4311699866353498,-4.985801031981232e-17,
0.52,8.974942425757732,-9.314572738012181,-3.7337958766997144,127.20142038442096,-3.0197443189785744,1.4310018415251071,0.001329216989209869,
0.54,9.913631390510256,-18.629770068675818,-5.507947257640382,121.50551243974098,-3.0207371935897034,1.4304874413663204,0.005397569111741878,
0.56,10.895663997408002,-19.524227355658688,-6.648912851668116,116.30912011785891,-3.022422754683039,1.4296135365250924,0.01231337842347274,
0.58,11.919121273247175,-20.274620228062627,-7.90193836676859,111.60197234196752,-3.0248211985300597,1.428369053745194,0.022170134755246262,
0.6,12.982187708875378,-20.89638356316482,-9.259342597122803,106.83773035003735,-3.0279499249118853,1.4267443091534324,0.03505311221507308,
0.62,14.084115587401614,-21.31603691644039,-10.717776316384603,107.42570801793075,-3.0318217978754283,1.4247319036546138,0.05103272332634527,
0.64,15.225231212991474,-21.507954286027868,-12.280340240569712,107.98664991659544,-3.0364452555362456,1.4223266426502534,0.07016572617910216,
0.66,16.405864140028648,-21.424883429969334,-13.937538427092129,108.48536417176055,-3.041823717047838,1.4195257859093415,0.09249383978697152,
0.68,17.62631575488507,-21.009260418787502,-15.671979939536826,108.79497290147631,-3.047954623776041,1.416329454118767,0.11804116640194967,
0.7,18.886858758271803,-20.201230967474636,-17.457659016199575,109.04050674038785,-3.054828358695592,1.412741055830912,0.14681142801968824,
0.72,20.187202537454898,-18.938683628189047,-19.251352173225722,106.39503595843453,-3.0624270005602603,1.408767754234153,0.1787847943536649,
0.74,21.526489397964422,-17.15763875730679,-20.995803526822403,103.6702799237833,-3.070722786011124,1.4044210417329592,0.2139136234065271,
0.76,22.903841259173507,-14.815371589480568,-22.63005342367309,100.83512825936333,-3.079677013911589,1.3997170440962607,0.2521200416870886,
0.78,24.318351664092997,-11.887354761440086,-24.084157348772326,97.89991943727297,-3.0892392247310276,1.3946766491453675,0.29329446304253404,
0.8,25.769097312893834,-8.369188949640222,-25.281486401795068,94.93733773886763,-3.0993466511728798,1.3893254830213309,0.3372947609707546,
0.82,27.255600355711145,-4.28178388822877,-26.15025268662262,94.25421501729745,-3.109924101137592,1.3836936698958184,0.3839465157654446,
0.84,28.777831347532967,0.32548516179210196,-26.621452628298293,93.599039881718,-3.1208844045476205,1.3778153200878311,0.4330447475826554,
0.86,30.335758682852493,5.382753663660277,-26.623952215710524,92.971913175248,-3.1321291316377367,1.3717279563641465,0.48435553970319406,
0.88,31.929344871789834,10.798571352956355,-26.09439163252749,92.39196849364124,3.084365762324233,1.3654719058353513,0.5376175508590505,
0.9,33.558546214367404,16.464457321163433,-24.980340921393335,91.87857225291013,3.1281571426747155,1.359089808983557,0.5925426395560519,
0.92,35.22283979768159,22.22799917390094,-23.25851981224697,89.0290216981486,3.1167445785528347,1.3526255022897693,0.6488213780109373,
0.94,36.921220960895866,27.906456461469183,-20.92859941454069,86.25197889943341,3.105524602458882,1.3461225957440444,0.7061315186395923,
0.96,38.65267709654944,33.32804510673406,-18.02586793896483,83.57908114393615,3.094622912350119,1.339623382119515,0.7641450843876716,
0.98,40.41628075140805,38.326874706090976,-14.61472232264908,81.46895964838993,3.0841606794001604,1.3331678379562157,0.8225361454637202,
1.0,42.21119085168445,42.753794444137895,-10.78272733340835,79.47282717621748,3.0742510824034057,1.3267928109173623,0.8809887723816369,
1.02,44.03680492460345,46.48660744231126,-6.636335466189871,78.81802143778062,3.0649962140162312,1.3205314550094998,0.9392047638061505,
1.04,45.89276057318541,49.43547557845969,-2.290305491419269,78.27292875718022,3.0564846019121283,1.314412935728948,0.9969107666411243,
1.06,47.778695992912496,51.541650278256206,2.143270593975281,77.8127727409324,3.0487893596693487,1.3084624112703556,1.0538646084139665,
1.08,49.69424824506764,52.778765654463896,6.558188535935743,77.42304518757963,3.0419670295573202,1.3027012435737848,1.1098607262701443,
1.1,51.639053909910835,53.150450732119864,10.860183596443342,77.08814034670569,3.0360571398076903,1.2971473898479167,1.1647345303445311,
1.12,53.61315524191202,52.69826113802182,14.97514975768894,78.90082566820848,3.0310832947866335,1.2918161300002142,1.2183639838439024,
1.14,55.61708313258148,51.491227332458486,18.850678724472843,81.18075051430993,3.0270556505677395,1.2867210710419954,1.2706685752289688,
1.16,57.6513859426834,49.57888115240247,22.43874311938259,83.1357983112251,3.023971188298992,1.2818745395383246,1.3216121046968676,
1.18,59.716545917948814,47.00257548882813,25.71746156149778,85.09185526255999,3.021813580481116,1.2772877511433365,1.3712058254798045,
1.2,61.813045589074754,43.82975196078524,28.68320694387028,87.04336339480027,3.0205549188765253,1.2729713220775014,1.4195076072822028,
1.22,63.940949631413055,32456.437298727153,31.344953279048866,-60232.04912386875,3.0201574968519806,1.268935678038075,1.466620314672895,
1.24,66.09990169444012,-31967.063417641984,33.718243269220345,-670.3991003923293,3.0205754535916967,1.265191310346944,1.5126896275172188,
1.26,68.28954490025244,-382.00947365923275,35.82289568981198,86.15969207939342,3.021756559495193,1.2617489487991862,1.5579008339918812,
1.28,70.50952751016248,26.318540964211664,37.6804757647814,85.807065847045,3.023643983023482,1.2586196436855435,1.602474895358563,
1.3,72.75950357235598,20.987314561714083,39.31049610463916,85.42590261911813,3.026177963109409,1.2558147546449543,1.6466639571112573,
1.32,75.03942136430078,15.356092728556302,40.72824201017907,86.52811163380757,3.0292974111140776,1.2533458676044782,1.6907463637491011,
1.34,77.34952725910688,9.453973810323147,41.94095089202156,87.6199817413649,3.032941402921079,1.2512246821620108,1.73502145195042,
1.36,79.69007857974356,3.2651238821877993,42.93107872285864,88.67865393549214,3.0370479851805565,1.249463030066141,1.7798093603764666,
1.38,82.06134062937127,-3.182996408684508,43.69504422562617,89.70054660001223,3.041555764450166,1.2480726357999667,1.8254447161218432,
1.4,84.4635875715114,-9.816922082004652,44.20015746932035,90.68219392988374,3.04640802306669,1.2470645258453088,1.8722641385202317,
1.42,86.89710316862603,-16.592030988972443,44.39794909780631,91.61938599584012,3.051554238351492,1.2464485244845613,1.920598289288736,
1.44,89.36218147049323,-23.447528858608955,44.22580291500613,92.50740017051014,3.056951590728029,1.246232631202237,1.9707630924053756,
1.46,91.85912742676247,-30.300448323379232,43.6096325594706,93.34143808505874,3.0625664442803746,1.246422255761106,2.0230499465292415,
1.48,94.38825739064475,-37.04066403346737,42.468494754227656,94.11725899162032,3.0683756950362664,1.2470192926413377,2.077714862721667,
1.5,96.94989947472634,-43.527100654936916,40.72143753649536,94.83199583552994,3.07436781813094,1.248021026838138,2.134966523894235,
1.52,99.54424909491804,-49.58478053718934,38.29648170710563,94.72298527348315,3.0805433766913835,1.2494188767431975,2.1949533084849047,
1.54,102.17136654360532,-55.00657832873962,35.14271197188072,94.54291937588523,3.08691469415382,1.2511970074803334,2.257749410428468,
1.56,104.83132028817707,-59.59504921498254,31.238835743572913,94.31034420499172,3.0935041126906055,1.253331437499467,2.32334486774718,
1.58,107.52418769264278,-63.14765464111831,26.610342053980844,94.03641061544174,3.100340852693433,1.255789428403924,2.3916376473184324,
1.6,110.2500544074857,-65.40776140665032,21.341680922305823,93.73748711525865,3.1074566877037304,1.2585280888898924,2.4624180788825307,
1.62,113.00901353674293,-66.13982169098435,15.57377437075391,93.43566037992305,3.1148795922548387,1.2614932749680106,2.535353398668526,
1.64,115.80116381882459,-65.18403078511895,9.513069199091984,93.15721182950361,3.122625276841927,1.2646197621806188,2.609980072267164,
1.66,118.6266074722759,-62.457923578968796,3.422282376829207,92.9307489378198,3.130687470975468,1.2678323311939268,2.685700806976729,
1.68,121.4854477817088,-57.977053423525966,-2.3958077368818245,92.78450661756266,3.139027972365279,1.2710478644296692,2.761787677106949,
1.7,124.37778651780769,-51.866934590228304,-7.622389683951442,92.74303958435172,-3.0288459579280946,1.2741784223590435,2.8373927730043724,
1.72,127.30372130733042,-44.361985689326296,-11.951739340629265,92.82373344625152,-3.127003394430251,1.2771350973013829,2.9115674552848114,
1.74,130.26334307977115,-35.789712841244906,-15.121214272609725,93.03371034349861,-3.1184884161764557,1.2798322756954235,2.983290668436233,
1.76,133.25673370571494,-26.541883631424867,-16.937499282661257,93.36773152218949,-3.1102887558582895,1.2821918325092185,3.051505937863392,
1.78,136.28396388032056,-17.039222989409797,-17.295722554033595,93.80755015761397,-3.102653181431571,1.2841468061109207,3.1151660701678634,
1.8,139.34509145197188,-7.682020072566283,-16.18404180901667,94.32316488983373,-3.09584684157668,1.285643986868632,-2.996851796012974,
1.82,142.44002223741546,1.1845558603531785,-13.683186372207707,94.15727911269079,-3.0901315779153746,1.28664521691859,-3.058217025087603,
1.84,145.56850653172552,9.2871019373105,-9.955105247086623,93.97115075460414,-3.085744952001905,1.2871275685659733,-3.0136895062754463,
1.86,148.73027634186536,16.441373498315393,-5.227090336631252,93.73450046710789,-3.082880806131361,1.287082525420506,-2.976859621104485,
1.88,151.92504774786045,22.549848378878067,0.22736436852497643,93.4089283224325,-3.081673681208147,1.2865145617872487,-2.9480425313809415,
1.9,155.15247102796434,27.58591382633231,6.106516972345084,92.70527266074649,-3.082188684377321,1.2854395657655344,-2.9273110185845095,
1.92,158.41231838105682,31.571239796699388,12.098194587825073,92.84340756526245,-3.0844175678559003,1.2838834735999494,-2.914488182733219,
1.94,161.7045376101964,34.55212325752263,17.895676007937197,92.86426229025908,-3.088281046799448,1.2818813151078654,-2.9091524314307597,
1.96,165.02906519378132,36.56915366840231,23.210551065221384,92.76079698301113,-3.0936363420013335,1.2794767988919105,-2.9106526030076436,
1.98,168.38582315980835,37.63871123731401,27.787301824591076,92.55761876736368,-3.100288779702005,1.2767223160639285,-2.918131937560018,
2.0,171.77471991770926,37.75079841741849,31.420371966547165,92.28883901935224,-3.1080061513610544,1.2736789698792406,-2.9305608170405333,
2.02,175.19579991380576,36.86969739582465,33.96648666042971,92.76980977077089,-3.116534187575259,1.270416356801699,-2.946775990653337,
2.04,178.64924789073885,34.937998150031596,35.353430889519956,93.28051418965325,-3.1256114450180403,1.2670119296428588,-2.9655228936473295,
2.06,182.13524256035814,31.893815150853396,35.58053544618423,93.84035836530339,-3.1349821881876654,1.2635497126808606,-2.985498975016452,
2.08,185.65395631510268,27.693098627886208,34.71456829220116,94.47594084269986,3.0081410084672364,1.2601182873290138,-3.0053960719551496,
2.1,189.2055585383736,22.33010407263925,32.87616192761656,95.20223265560023,3.1295196270490613,1.2568081123931678,-3.0239399288344715,
2.12,192.79007128624582,15.852698082998577,30.218302670294428,95.2422795410429,3.120618204445451,1.2537083503456858,-3.039925373047213,
2.14,196.4073707886629,8.374072852139122,26.904369865087183,95.34688907154674,3.1122433319917704,1.250903417446509,-3.052246415219175,
2.16,200.05733995943862,0.06928932338955995,23.0838417186323,95.51084142340882,3.104541580272848,1.2484696308311811,-3.0599196603914116,
2.18,203.73987580717477,-8.82151398323956,18.877295598399947,95.7040646334206,3.097641406625324,1.2464719892958245,-3.062103007746185,
2.2,207.45489353752023,-17.99522603802123,14.36460809140091,95.89202017787294,3.09165727989501,1.2449611253899975,-3.0581114929813227,
2.22,211.20232999865596,-27.1083729055134,9.585101443990965,96.03990707560327,3.086693179172726,1.24397075726034,-3.047429013798439,
2.24,214.98214622141717,-35.79103025135426,4.548441356691476,96.1167367670972,3.082844603945392,1.2435157104661803,-3.0297170526998665,
2.26,218.7943288971858,-43.660071932185225,-0.7467939136535522,96.09895582599142,3.0801984014966792,1.243590532089008,-3.004821804665769,
2.28,222.638890637171,-50.33788069682862,-6.289461356810193,95.97336440847728,3.0788299720510914,1.2441688033073084,-2.972780183757633,
2.3,226.51586892441665,-55.47527364808295,-12.031804856297157,95.73907629198649,3.078797688301639,1.2452033025314708,-2.933824606086358,
2.32,230.42547251833028,-58.77939582399887,-17.870724876271296,96.19289803483622,3.0801347416205465,1.2466272087230224,-2.888385721832233,
2.34,234.36808141927142,-60.044600008096516,-23.637295598541726,96.59345538478155,3.082839100543073,1.248356524599134,-2.837091625381831,
2.36,238.3440937253583,-59.18325630070785,-29.100105425109927,96.95686952947355,3.0868627649663565,1.2502938825389234,-2.7807612325608,
2.38,242.3539168137524,-56.24166193870671,-33.97584346755508,97.32399802959063,3.092101967136293,1.2523335145130796,-2.7203913118564325,
2.4,246.3979616427906,-51.40898538962733,-37.960386726228336,97.73722116090852,3.09839039345069,1.2543671184463558,-2.6571352746810115,
2.42,250.47633727229788,-45.0193285284266,-40.76128166460248,96.6597484144416,3.1054976990343377,1.2562903361629871,-2.5922703369882307,
2.44,254.58883769535916,-37.52362166731098,-42.13694490421497,95.65660097358942,3.113134945702789,1.2580091074963597,-2.527153312246427,
2.46,258.73523587147173,-29.446208758647096,-41.930316776046894,94.78208723684534,3.1209676391427474,1.2594451214305251,-2.4631663352726414,
2.48,262.91528716809916,-21.326390530795994,-40.08580868329157,94.0361947037744,3.1286354602217363,1.2605396596824359,-2.4016561323799337,
2.5,267.1287266809516,-13.661072056334717,-36.65416052968765,93.40356533560202,3.1357764640687757,1.2612554058139276,-2.343871501278336,
2.52,271.3754184248164,-6.857588087404004,-31.785019755846385,93.64658074333875,-2.982859721202593,1.26157615643157,-2.290904163059466,
2.54,275.6553585237941,-1.204245151867835,-25.712442802512353,93.95855823319647,-3.136011722090855,1.2615048792239165,-2.2436366938441306,
2.56,279.9685236399302,3.131106898603483,-18.753063348359742,94.2797529999046,-3.132268362356915,1.2610615414280537,-2.2026945567523923,
2.58,284.31486857260523,6.111555433661501,-11.230235422621043,94.57291252006874,-3.1300445709276485,1.2602790976490172,-2.1684224743388216,
2.6,288.694329615892,7.83339110691856,-3.502402278531089,94.80896863051015,-3.1293974151600703,1.2591986818886516,-2.1408815969406723,
2.62,293.1068266871843,8.4116830807545,4.065392481194895,94.96949076914187,-3.1302994943164664,1.2578665813434422,-2.1198502020782763,
2.64,297.55226559562095,7.986167411651228,11.108410410066675,95.0483823694847,-3.1326445611147347,1.256332104958608,-2.1048361342471207,
2.66,302.0305404277626,6.6950750365694525,17.274889328162512,95.05171059675259,-3.136257233377351,1.2546463137407937,-2.095100344209867,
2.68,306.5415360480551,4.657667219489047,22.241572168965565,94.9956644402499,-3.1409057023893387,1.2528614112082272,-2.0896907399239404,
2.7,311.0851307547801,1.9691744616187425,25.73217645075393,94.90292556929819,2.967290684477095,1.2510304600754447,-2.0874855247041606,
2.72,315.66135040018764,-1.2917328445967695,27.538219354104815,95.59444683240652,3.130995230254622,1.2492070428733084,-2.0872448955678404,
2.74,320.2703756068681,-5.04595914919364,27.54002727225568,96.31713280987228,3.124967792772751,1.2474443302215774,-2.0876703807523316,
2.76,324.912395354005,-9.19227662210843,25.728933004927278,97.06201660956005,3.1190891135138403,1.2457927664588309,-2.0874720925139716,
2.78,329.58760103448407,-13.570570527165318,22.175404445151642,97.8072255370483,3.1136415170204925,1.2442982881444722,-2.0854302483885934,
2.8,334.2961856765454,-17.987580401009552,17.055076761261134,98.55906395599648,3.1088756934191317,1.2430008377178112,-2.080450233361584,
2.82,339.0380487535532,-22.16264179280358,10.626213169239634,97.71629727582834,3.1050004467548953,1.2419317161291699,-2.071617411251899,
2.84,343.8127933417165,-25.76227303310497,3.222734011634759,96.81468384737857,3.1021744159801807,1.2411111168401914,-2.0582435771125906,
