Temps,Position en z,Acceleration en x avec g,Acceleration en y avec g,Acceleration en z avec g,Angle phi,Angle theta,Angle psi,
0.0,-0.0,-6.815974664038537e-17,-1.367077149753415,9.727259359518746,-3.01941960595019,1.4311699866353498,-4.985801031981232e-17,
0.02,0.0,-6.815974664038537e-17,-1.367077149753415,9.727259359518746,-3.01941960595019,1.4311699866353498,-4.985801031981232e-17,
0.04,0.0,-6.815974664038537e-17,-1.367077149753415,9.727259359518746,-3.01941960595019,1.4311699866353498,-4.985801031981232e-17,
0.06,0.0006119382010620181,-6.815974662727797e-17,-1.3670771494905205,12.816393109093145,-3.01941960595019,1.4311699866353498,-4.985801031981232e-17,
0.08,0.004435378143202489,-6.815974654538187e-17,-1.3670771478479338,22.852023823896808,-3.01941960595019,1.4311699866353498,-4.985801031981232e-17,
0.1,0.01567439758073536,-6.815974630464789e-17,-1.3670771430195423,34.04575477847338,-3.01941960595019,1.4311699866353498,-4.985801031981232e-17,
0.12,0.04042683733890211,-6.815974577446345e-17,-1.3670771323856556,53.64340612212597,-3.01941960595019,1.4311699866353498,-4.985801031981232e-17,
0.14,0.0858574672275694,-6.815974480136286e-17,-1.3670771128682184,70.2284411705935,-3.01941960595019,1.4311699866353498,-4.985801031981232e-17,
0.16,0.15853921509159175,-6.815974324455746e-17,-1.367077081643438,86.83825686981372,-3.01941960595019,1.4311699866353498,-4.985801031981232e-17,
0.18,0.2649207180864032,-6.81597409659207e-17,-1.3670770359409175,102.79527058444708,-3.01941960595019,1.4311699866353498,-4.985801031981232e-17,
0.2,0.4111915350389566,-6.815973783287553e-17,-1.367076973101563,118.0968388272393,-3.01941960595019,1.4311699866353498,-4.985801031981232e-17,
0.22,0.6006759297538202,-6.815973377421786e-17,-1.3670768916972384,119.58898907699387,-3.01941960595019,1.4311699866353498,-4.985801031981232e-17,
0.24,0.8339593099438731,-6.815972877740861e-17,-1.367076791476447,121.05598889659572,-3.01941960595019,1.4311699866353498,-4.985801031981232e-17,
0.26,1.1116231496734739,-6.815972282999289e-17,-1.3670766721893817,122.52551612684971,-3.01941960595019,1.4311699866353498,-4.985801031981232e-17,
0.28,1.4342973475694274,-6.815971591847859e-17,-1.3670765335654325,124.2369704096335,-3.01941960595019,1.4311699866353498,-4.985801031981232e-17,
0.3,1.8026604060658251,-6.815970802833254e-17,-1.3670763753131077,125.95200232279042,-3.01941960595019,1.4311699866353498,-4.985801031981232e-17,
0.32,2.217218749115073,-6.815969914870741e-17,-1.3670761972148426,126.79483486824164,-3.01941960595019,1.4311699866353498,-4.985801031981232e-17,
0.34,2.678305895385659,-6.81596892724594e-17,-1.367075999127355,127.63649168438306,-3.01941960595019,1.4311699866353498,-4.985801031981232e-17,
0.36,3.1862554536771164,-6.815967839244277e-17,-1.3670757809073224,128.47960487064267,-3.01941960595019,1.4311699866353498,-4.985801031981232e-17,
0.38,3.7414016103613355,-6.815966650149944e-17,-1.367075542411176,129.3241782230955,-3.01941960595019,1.4311699866353498,-4.985801031981232e-17,
0.4,4.344079130888924,-6.81596535924589e-17,-1.367075283495097,130.1702155510429,-3.01941960595019,1.4311699866353498,-4.985801031981232e-17,
0.42,4.99461384012574,-6.815963965834215e-17,-1.367075004019108,130.96965670264012,-3.01941960595019,1.4311699866353498,-4.985801031981232e-17,
0.44,5.693322574896721,-6.81596246923627e-17,-1.3670747038470925,131.77029303787916,-3.01941960595019,1.4311699866353498,-4.985801031981232e-17,
0.46,6.440522686172105,-6.815960868772307e-17,-1.3670743828427137,132.57232084185654,-3.01941960595019,1.4311699866353498,-4.985801031981232e-17,
0.48,7.236555928075433,-6.815959163710306e-17,-1.3670740408591506,133.49614789164704,-3.01941960595019,1.4311699866353498,-4.985801031981232e-17,
0.5,8.081788596542571,-6.815957353265679e-17,-1.367073677739039,134.42213964381696,-3.01941960595019,1.4311699866353498,-4.985801031981232e-17,
0.52,8.975299272632165,-6.81595543941206e-17,-1.3670732938782297,128.84546082096273,-3.01941960595019,1.4311699866353498,-4.985801031981232e-17,
0.54,9.914578157141115,-9.770349911461082,-3.9346506369166807,121.55182472650024,-3.0197601316098424,1.4309937247921602,0.0013933224769098777,
0.56,10.89720623573949,-19.484972936905727,-5.815013995999845,116.38421620822673,-3.0207992150059026,1.430455578937562,0.005649329511585465,
0.58,11.921264783985043,-20.385623844379364,-7.042023110312579,111.71698151496315,-3.0225609715900985,1.4295424609275642,0.012875392952190836,
0.6,12.984940115998796,-21.13352641666883,-8.373113077940102,106.99343868297646,-3.025065218991338,1.4282434441161096,0.02316438038819574,
0.62,14.08748646008029,-21.705492701665133,-9.810700949040196,107.62223463079373,-3.028327508065183,1.4265497526331787,0.036595123138537425,
0.64,15.229232326254687,-22.077150873365014,-11.360116550419256,108.22336752028933,-3.0323592958970376,1.4244546639973665,0.05323371669885916,
0.66,16.410509589904493,-22.20181965504296,-13.015726275085452,108.76077078497626,-3.0371674106899724,1.42195374929897,0.0731321895052471,
0.68,17.631622077915598,-22.021346264646535,-14.76471112545499,109.10654540549167,-3.0427531418632014,1.4190452796710824,0.09632593494452779,
0.7,18.892845060046916,-21.473813533227148,-16.586177769088742,109.38456068983841,-3.0491111935300625,1.4157306647334305,0.12283091023061993,
0.72,20.193890362458294,-20.49300358616828,-18.442638841474846,106.76660445957437,-3.056228444316256,1.4120149469586694,0.15264035704652956,
0.74,21.533902529369122,-19.008113170653765,-20.2823213878948,104.06302914434593,-3.0640823635563774,1.407907427051069,0.18572031593156124,
0.76,22.912005729157464,-16.96742433394573,-22.048656503806992,101.24136199847715,-3.0726398301234688,1.4034220341600658,0.22200693342388114,
0.78,24.32729574324218,-14.335171940301937,-23.674800255265414,98.31067857373422,-3.081856175382251,1.3985775369468156,0.26140464601970037,
0.8,25.778851483775334,-11.093696331895053,-25.08527690980082,95.3426063212225,-3.0916744403018392,1.3933976173771505,0.3037849491639619,
0.82,27.26619760731555,-7.249589371190352,-26.20680407765434,94.64324028674392,-3.1020250167401717,1.3879107358278608,0.3489862017684804,
0.84,28.78930749325462,-2.8378495750382307,-26.966158384610818,93.96075289677987,-3.1128258268950884,1.3821497210721705,0.39681493206823915,
0.86,30.348152334699503,2.086074112654532,-27.285057242290616,93.29543907177575,-3.123982733066567,1.3761512972044143,0.44704696377199327,
0.88,31.94269736228716,7.444090688034695,-27.089725849027968,92.66721860505785,-3.1353902305508736,1.3699555679995232,0.4994283500027349,
0.9,33.57290147463557,13.138660432658664,-26.314704628971235,92.09686670606736,3.0797269508784777,1.363605589439928,0.5536754086685172,
0.92,35.238243722970964,19.023119970840423,-24.9217731485585,89.1836865749103,3.1247004240031226,1.357146270140856,0.6094798123423416,
0.94,36.93772067672053,24.915624727436978,-22.8947602519063,86.338843960721,3.113265845363453,1.3506229275563415,0.6665167179674747,
0.96,38.670320622918894,30.639301473343693,-20.253984037887918,83.59679735660444,3.102078825881953,1.3440801263101823,0.7244516567079959,
0.98,40.43511674161473,36.01746761411115,-17.051244998886176,81.41909481734021,3.091266261563769,1.3375605640273054,0.782948298696543,
1.0,42.23126832468065,40.885532457256865,-13.365089122339336,79.35972460343909,3.080948725390902,1.3311041117818276,0.8416765739533728,
1.02,44.05817316285033,45.10263263604956,-9.297445603597819,78.64843966191154,3.0712370695270566,1.3247470865318907,0.9003207262515999,
1.04,45.91546903410418,48.558761833979524,-4.963249311467611,78.05550045844616,3.0622295619787145,1.3185217924031116,0.9585869106489273,
1.06,47.80279398016269,51.1755819863961,-0.4789417506591791,77.55736194884219,3.0540096205648406,1.3124563555206192,1.0162100822401314,
1.08,49.719784596487074,52.90895821639462,4.0413138168153955,77.14006826462713,3.0466442354121543,1.3065748158841657,1.0729600457652728,
1.1,51.666076710417784,53.747709047998406,8.492704562835016,76.78791897266402,3.040183133208118,1.3008974336008279,1.1286464736602444,
1.12,53.64171198140165,53.72332560956902,12.789293576170536,78.59308965222046,3.034659591227006,1.2954413792013424,1.1831209887847371,
1.14,55.64722098459796,52.89883741966586,16.86589719770307,80.87424195322424,3.0300926641437114,1.2902217187252993,1.2362766298983652,
1.16,57.68315157336529,51.31935089123503,20.662927031102342,82.83794630978713,3.026487206148097,1.2852518062015528,1.288051288872945,
1.18,59.74998521141655,49.02601040692815,24.14862123650192,84.80860530727095,3.023833604414579,1.2805434919180674,1.3384314028374644,
1.2,61.84820345890589,46.089366823514496,27.31147800247517,86.77918390960805,3.0221094656928384,1.2761076868240047,1.3874514961077464,
1.22,63.97786944826737,42.57471444240402,30.15518999730908,86.54584477527854,3.021281409149483,1.2719548319095528,1.4351928639143103,
1.24,66.13862474043832,32448.298255197325,32.69227808782788,-60238.646366273424,3.0213067511300027,1.2680952166616912,1.4817816547813056,
1.26,68.33011024709235,-31955.818203080307,34.94147029454309,-683.3588980774002,3.0221353575493173,1.2645392109406015,1.5273858557556765,
1.28,70.55197190864561,-390.71857391651065,36.925316622099565,85.63978113877921,3.023711489809785,1.261297400667833,1.57221149222807,
1.3,72.80386134484272,23.92200064088506,38.666137431288995,85.28405115739002,3.0259755545026144,1.25838062420169,1.6164982392400524,
1.32,75.08572453421644,18.366934367450032,40.183482231051805,86.4114982841828,3.0288657733494624,1.2557999310897892,1.660514513622222,
1.34,77.39780565928012,12.531754404354288,41.489908783900006,87.5284490296813,3.0323196753802892,1.2535665112901673,1.7045524402475938,
1.36,79.74035970813871,6.402654436390176,42.57511103126131,88.61224028835188,3.0362729481120723,1.2516917396386185,1.7489276907679818,
1.38,82.11364949859691,0.008159309810716664,43.442622765622495,89.65961892834947,3.0406610890744785,1.2501869715080751,1.79397322515924,
1.4,84.51794655055372,-6.581162676282764,44.06743692196932,90.6674796414109,3.045423503485217,1.2490630085319578,1.8400270845777953,
1.42,86.95353182430998,-13.325542093568936,44.40853579969955,91.6319273674361,3.0505050164751975,1.248329647604051,1.8874247006898373,
1.44,89.42069641504523,-20.17154766381979,44.40998473664408,92.54843003286781,3.055857387519117,1.2479951217833254,1.9364904292995446,
1.46,91.9197421804499,-27.046035786342102,44.00290095611673,93.41217471876753,3.0614408315033788,1.2480654096490105,1.9875281233465067,
1.48,94.45098227140781,-33.85087704294858,43.10921331610588,94.21862273242333,3.0672254680721673,1.2485433924436198,2.0408106601425873,
1.5,97.014741529767,-40.45854190332767,41.647548479302486,94.96425761071033,3.0731925609255817,1.2494278449575704,2.0965683908962522,
1.52,99.61121202645985,-46.70813820754262,39.54117274346774,94.88536812966491,3.079335341442298,1.2507122550974212,2.1549765153873146,
1.54,102.24045072779774,-52.40552398933569,36.72927689905324,94.73318863825943,3.08565914598812,1.2523834892184305,2.216141457176028,
1.56,104.90252294083272,-57.364333207308874,33.175380099420494,94.52446760176096,3.092180279903674,1.2544209255254117,2.280091056727781,
1.58,107.59750318470346,-61.38377108195252,28.88510045425796,94.26835169919315,3.0989236473866155,1.2567957490597652,2.3467661173415166,
1.6,110.32547474004988,-64.20326648171523,23.917458773602032,93.97915365348888,3.105919314636301,1.2594693886532482,2.416004245236706,
1.62,113.08652892149436,-65.57621453050221,18.38616704648144,93.67702036809087,3.1131970564636013,1.2623922065730515,2.487523867124962,
1.64,115.88076339149931,-65.31917345967686,12.47083780544174,93.38679602095358,3.120778666493082,1.2655033234503898,2.560915147445268,
1.66,118.70828012460211,-63.315712512583914,6.411359046521876,93.13649397600815,3.1286686956498984,1.2687312749562354,2.6356350053146844,
1.68,121.56918308393166,-59.539467843630604,0.4953231663176467,92.95489509117289,3.1368444292041566,1.271995644075511,2.7110076370143776,
1.7,124.46357569199965,-54.070323766554296,-4.962984516672324,92.86841847073048,-3.0311674912788806,1.2752097054245353,2.7862320116539747,
1.72,127.39155820277271,-47.09898787684274,-9.65003648678007,92.89762042594184,-3.129414415203241,1.278283958817494,2.8603975924605574,
1.74,130.35322509774096,-38.917206759646945,-13.283254441064354,93.05385414786105,-3.1209185896444014,1.2811302558735382,2.932509042522575,
1.76,133.34866262124396,-29.89424651184289,-15.639465370715426,93.33669786470752,-3.112648462310124,1.2836660909138584,3.001519988536269,
1.78,136.37794652408525,-20.444292145777617,-16.577578572952746,93.73268064020219,-3.104838710203354,1.2858185977793606,3.0663752741444386,
1.8,139.4411402247291,-10.97744454735671,-16.047900263244635,94.21586720098674,-3.0977477228383576,1.287527640296795,3.1260580431657856,
1.82,142.53815536326115,-1.8627008602030042,-14.095659770486893,94.03173023999379,-3.0916391214953896,1.2887477077677685,-2.9892383590226714,
1.84,145.66874811577645,6.593707449960307,-10.852897789257575,93.84261658126302,-3.086760848667991,1.289448670246974,-3.0568617152486453,
1.86,148.8326563363093,14.171142109787883,-6.524438354656363,93.61752205015556,-3.0833246565635393,1.289615425537426,-3.017686928765967,
1.88,152.02960179131787,20.73775099424127,-1.369133706908804,93.31563936696287,-3.081488573130932,1.2892467723383596,-2.9864224922326823,
1.9,155.25924014572118,26.238993361028122,4.318633311924299,92.64406935320983,-3.0813443311533204,1.2883539409200473,-2.963230513978365,
1.92,158.5213487675526,30.677471109045744,10.227547660605676,92.81812439193097,-3.0829109360118876,1.2869591776122533,-2.9480229883417666,
1.94,161.81588041523753,34.0899878928745,16.046215143931786,92.87393424833012,-3.08613474708216,1.2850946385783992,-2.9404625761177234,
1.96,165.14277610137353,36.51593784273354,21.47678152417804,92.80000786810042,-3.090895286384109,1.2828017940527516,-2.939974184926584,
1.98,168.50196189758546,37.97669943563468,26.250121050882417,92.61737125950506,-3.097015721249071,1.2801312734829744,-2.9457662448326323,
2.0,171.89334968110296,38.47027703037197,30.143247834515535,92.35784268980868,-3.104276730198076,1.2771428029157927,-2.9568615855319607,
2.02,175.31698683579356,37.968338370373424,32.992774926553935,92.83601629873661,-3.112432048538903,1.273904981042351,-2.9721355619726655,
2.04,178.77306039305998,36.41793606227937,34.70531988812529,93.3327007828082,-3.12122390052308,1.27049470781766,-2.9903580849796305,
2.06,182.2617504059865,33.75664807024317,35.26015446463342,93.86956049232197,-3.130396751830756,1.2669960142229888,-3.0102373461590943,
2.08,185.7832295091261,29.93419573091352,34.70739066041077,94.47655715788508,-3.1397082601032693,1.2634981771060783,-3.030463170622019,
2.1,189.33766609690264,24.93338468439644,33.15650346195919,95.17267441081937,3.002354444276114,1.2600931507429247,-3.0497479518549624,
2.12,192.92507975180212,18.78666006748235,30.756106550719622,95.18510842531144,3.125300419928501,1.2568724647945984,-3.066863493543688,
2.14,196.5453427072221,11.589509620825552,27.672138234478822,95.26846348651264,3.116804965446036,1.2539237979818665,-3.0806728211994017,
2.16,200.1983325433209,3.49837834222327,24.062368609457863,95.4205635182055,3.1089119425036844,1.25132760855781,-3.090155124817015,
2.18,203.88393971551736,-5.263606574876322,20.05955348974171,95.61332345949138,3.101752225009223,1.2491538488575384,-3.094425855935598,
2.2,207.6020718498365,-14.408499743267072,15.75596749949246,95.81298375139299,3.095442164285606,1.2474588240289382,-3.092753608068322,
2.22,211.35265744705035,-23.606426913669146,11.200653200964837,95.98428253358678,3.090087570739014,1.2462825428949653,-3.0845723414038915,
2.24,215.13564875853461,-32.49788703532991,6.407203072795467,96.0945887200137,3.0857864288069243,1.2456466071660883,-3.069490303761712,
2.26,218.95102365739686,-40.706156511170555,1.3701659508503,96.11765833333119,3.0826296030873763,1.2455526519051574,-3.047297120038964,
2.28,222.7987863297573,-47.85430132943399,-3.9122673048643506,96.03675404593467,3.080699026424416,1.245981422290268,-3.0179697065128535,
2.3,226.6789666736315,-53.5858841747552,-9.413661517041298,95.84688105751937,3.080063104170844,1.2468926181573095,-2.98167714091837,
2.32,230.59176721879362,-57.590560287494206,-15.05834097030543,96.34052909774012,3.0807693974388983,1.248225686091841,-2.9387839197271224,
2.34,234.53756346815314,-59.63350034399008,-20.707209575988124,96.77224823260867,3.082835072637846,1.2499017506993635,-2.889850376443953,
2.36,238.51675097264794,-59.58669514653166,-26.156440697835674,97.15482754438143,3.0862360723822024,1.2518268932523808,-2.8356280844691946,
2.38,242.5297367237156,-57.44582874238965,-31.142442509108754,97.52702470774426,3.090896439680044,1.2538966132351914,-2.777050014907953,
2.4,246.57693353316907,-53.344423367709936,-35.36910962446176,97.93074948094772,3.0966797564839617,1.2560013115417927,-2.715213379621884,
2.42,250.6584543074996,-47.56346685302248,-38.5374765953784,96.83053154047458,3.1033850325490175,1.2580326251472174,-2.6513513083183438,
2.44,254.7740986239921,-40.509919051821015,-40.384919554977344,95.79438354143322,3.1107489612761587,1.2598899385183067,-2.586793232878143,
2.46,258.9236465326708,-32.68034337192009,-40.72147159391666,94.88083908714745,3.1184557599491183,1.2614863236689757,-2.522914436657392,
2.48,263.10686152135924,-24.606273119886126,-39.45143144023813,94.09466792812266,3.1261543214548695,1.2627531506171026,-2.4610776535274614,
2.5,267.32348730643815,-16.796983802507107,-36.58357462545918,93.42507915036667,3.1334810012837635,1.2636428212504114,-2.4025708561314647,
2.52,271.57339661209795,-9.688935622606333,-32.228658742844864,93.63810135358747,3.1400852128122976,1.2641294064970212,-2.3485462289300147,
2.54,275.8565938185744,-3.612097772401836,-26.590192825793643,93.92926166680319,-2.97800150012816,1.2642075443233036,-2.2999636735126963,
2.56,280.17306297890934,1.2172241255729688,-19.96056754162975,94.23927232109922,-3.1332469242127594,1.2638907500547047,-2.257537457801778,
2.58,284.52276519318826,4.724934663999859,-12.648029478794946,94.52991697940155,-3.130423689431079,1.2632075587184375,-2.221707482980979,
2.6,288.90564167109244,6.9754340971956506,-5.002949182343768,94.77000034525325,-3.12915160166798,1.2621967087896553,-2.192631154335028,
2.62,293.32161574786954,8.059605613701372,2.610793182160167,94.93823574398309,-3.1294354262868573,1.2609038899710316,-2.1701790108147727,
2.64,297.7705951223288,8.1021465336961,9.823609034291717,95.02550978173207,-3.131197740140021,1.2593792833395312,-2.1539427938526914,
2.66,302.25247427335586,7.233616662328989,16.273218847213254,95.03528523824362,-3.1342874229365725,1.2576759462873845,-2.143255371610157,
2.68,306.7671370348066,5.569913745768779,21.620329838316955,94.98204822906466,-3.138491712742044,1.2558489053124846,-2.1372217010883334,
2.7,311.31445935645206,3.2036727939345,25.567414455419595,94.88800117192694,2.97005641836328,1.2539546593462052,-2.1347599741646364,
2.72,315.8944636985434,0.2085586186756716,27.880360623365824,95.57492980028586,3.1340119550554904,1.252050717954849,-2.1346518374341077,
2.74,320.50732648808776,-3.3448510858573948,28.412742563586555,96.2916434893965,3.128131337600177,1.2501945553651976,-2.1356015506210237,
2.76,325.15323163430503,-7.364028609244802,27.126877081795094,97.0318782882604,3.122296318713384,1.2484413238090308,-2.136303725785726,
2.78,329.8323645863273,-11.709753892572895,24.065321067171876,97.77586387261094,3.11679427085347,1.2468421058188945,-2.135505228266642,
2.8,334.54491205009276,-16.20918211079208,19.37752357973638,98.53341585045392,3.1118845716747665,1.245442294940501,-2.132061515573949,
2.82,339.2907670189469,-20.596351056575934,13.299022670374816,97.70380669824262,3.1077879768426007,1.2442787627827707,-2.1249938935111214,
2.84,344.0695262052984,-24.543802941583596,6.144675255092803,96.82241523552017,3.104678013106545,1.2433771013517445,-2.113539109620979,
