Temps,Position en z,Acceleration en x avec g,Acceleration en y avec g,Acceleration en z avec g,Angle phi,Angle theta,Angle psi,
0.0,-0.0,-6.808133027475817e-17,-1.3655043560313187,9.716068350688987,-3.01941960595019,1.4311699866353498,-4.985801031981232e-17,
0.02,0.0,-6.808133027475817e-17,-1.3655043560313187,9.716068350688987,-3.01941960595019,1.4311699866353498,-4.985801031981232e-17,
0.04,0.0,-6.808133027475817e-17,-1.3655043560313187,9.716068350688987,-3.01941960595019,1.4311699866353498,-4.985801031981232e-17,
0.06,0.0006138449995116544,-6.80813302616089e-17,-1.3655043557675848,12.814827836055185,-3.01941960595019,1.4311699866353498,-4.985801031981232e-17,
0.08,0.004443005293102495,-6.808133017958391e-17,-1.3655043541224128,22.850464161164812,-3.01941960595019,1.4311699866353498,-4.985801031981232e-17,
0.1,0.015691559332024967,-6.808132993862707e-17,-1.3655043492895516,34.04419494906394,-3.01941960595019,1.4311699866353498,-4.985801031981232e-17,
0.12,0.040457347875470034,-6.80813294081156e-17,-1.3655043386491055,53.64184612575093,-3.01941960595019,1.4311699866353498,-4.985801031981232e-17,
0.14,0.08590514066714575,-6.808132843457202e-17,-1.3655043191227831,70.2268810069637,-3.01941960595019,1.4311699866353498,-4.985801031981232e-17,
0.16,0.15860786548564015,-6.808132687719669e-17,-1.3655042878865722,86.8366965386391,-3.01941960595019,1.4311699866353498,-4.985801031981232e-17,
0.18,0.26501415942001333,-6.80813245978524e-17,-1.3655042421698604,102.79371008543663,-3.01941960595019,1.4311699866353498,-4.985801031981232e-17,
0.2,0.4113135812307366,-6.808132146395183e-17,-1.3655041793133498,118.095278160101,-3.01941960595019,1.4311699866353498,-4.985801031981232e-17,
0.22,0.6008303946557896,-6.808131740428538e-17,-1.3655040978887918,119.58742824143536,-3.01941960595019,1.4311699866353498,-4.985801031981232e-17,
0.24,0.834150007341356,-6.808131240631299e-17,-1.3655039976446712,121.05442789232407,-3.01941960595019,1.4311699866353498,-4.985801031981232e-17,
0.26,1.1118538932849908,-6.808130645757883e-17,-1.3655038783311622,122.52395495357112,-3.01941960595019,1.4311699866353498,-4.985801031981232e-17,
0.28,1.4345719510465882,-6.808129954458971e-17,-1.3655037396776324,124.2354090670535,-3.01941960595019,1.4311699866353498,-4.985801031981232e-17,
0.3,1.8029826829932207,-6.808129165281136e-17,-1.3655035813925687,125.95044081061343,-3.01941960595019,1.4311699866353498,-4.985801031981232e-17,
0.32,2.217592513010167,-6.80812827713956e-17,-1.3655034032583893,126.79327318617192,-3.01941960595019,1.4311699866353498,-4.985801031981232e-17,
0.34,2.67873495969868,-6.80812728931981e-17,-1.3655032051318003,127.63492983212346,-3.01941960595019,1.4311699866353498,-4.985801031981232e-17,
0.36,3.1867436317909483,-6.808126201107255e-17,-1.3655029868694692,128.4780428478959,-3.01941960595019,1.4311699866353498,-4.985801031981232e-17,
0.38,3.7419527155914105,-6.808125011786032e-17,-1.3655027483278157,129.3226160295627,-3.01941960595019,1.4311699866353498,-4.985801031981232e-17,
0.4,4.34469697648311,-6.808123720639035e-17,-1.3655024893630097,130.16865318642522,-3.01941960595019,1.4311699866353498,-4.985801031981232e-17,
0.42,4.995302239264234,-6.808122326968308e-17,-1.3655022098350627,130.96809416663774,-3.01941960595019,1.4311699866353498,-4.985801031981232e-17,
0.44,5.694085340691936,-6.808120830095154e-17,-1.3655019096078485,131.76873033019106,-3.01941960595019,1.4311699866353498,-4.985801031981232e-17,
0.46,6.441363631668568,-6.808119229339766e-17,-1.3655015885450188,132.5707579621812,-3.01941960595019,1.4311699866353498,-4.985801031981232e-17,
0.48,7.237478866249662,-6.808117523970073e-17,-1.3655012464997425,133.49458483968218,-3.01941960595019,1.4311699866353498,-4.985801031981232e-17,
0.5,8.082797340302973,-6.808115713201426e-17,-1.3655008833146423,134.42057641925985,-3.01941960595019,1.4311699866353498,-4.985801031981232e-17,
0.52,8.976397634818925,-6.808113799007611e-17,-1.3655004993855997,128.84389742350868,-3.01941960595019,1.4311699866353498,-4.985801031981232e-17,
0.54,9.916062576139714,-6.808111786138062e-17,-1.3655000956652075,123.22481379553712,-3.01941960595019,1.4311699866353498,-4.985801031981232e-17,
0.56,10.899672344287579,-6.808109679133678e-17,-1.365499673064231,118.13827404150126,-3.01941960595019,1.4311699866353498,-4.985801031981232e-17,
0.58,11.925318881748037,-6.808107482081737e-17,-1.3654992324024546,113.58851351848325,-3.01941960595019,1.4311699866353498,-4.985801031981232e-17,
0.6,12.990859110387783,-5.441285278486247,-2.2231048934871835,107.28960795021115,-3.0196092701443096,1.4310720602442355,0.0007738772346941159,
0.62,14.09521207530124,-10.853865245311724,-3.3200084156901566,108.08953437277886,-3.0201871177577564,1.4307732213906041,0.0031365552851835687,
0.64,15.238710017175684,-11.38131350047433,-4.049627272448275,108.9195205171918,-3.021165499391508,1.4302662840246523,0.00714675207317166,
0.66,16.421692207131024,-11.837349304571875,-4.836181391747861,109.73391885856282,-3.0225541851352085,1.429545331519041,0.012853957007028658,
0.68,17.644471508815506,-12.235683942866354,-5.682537553848149,110.40554512259747,-3.024361173523207,1.4286053034764954,0.020301773452915246,
0.7,18.9073340565541,-12.557558570060461,-6.587752814142996,111.057641979893,-3.0265923845377327,1.4274421537354245,0.02952675699949254,
0.72,20.210003567932258,-12.780417430593129,-7.546521999282205,108.85966022917209,-3.029251271164743,1.4260530460131757,0.04055696571840068,
0.74,21.551637267158647,-12.875535869767136,-8.549755573930714,106.61740430005443,-3.032338235188678,1.424436645396369,0.05340974277892766,
0.76,22.931373607496244,-12.819545619362376,-9.588619084266423,104.2915638241273,-3.0358502306754533,1.4225933038773457,0.0680903411374006,
0.78,24.348324310409637,-12.5910736661185,-10.651993172648702,101.88204054147909,-3.039780426583524,1.42052520406338,0.08459086483633706,
0.8,25.801585968959238,-12.170035540394082,-11.726272286138109,99.44901064209441,-3.044117879466631,1.418236486492577,0.1028893167765127,
0.82,27.290704687263375,-11.540317205572435,-12.79903995944862,99.28514869266857,-3.0488472724461304,1.415733329936323,0.12294898196622543,
0.84,28.815679710804176,-10.691602268961212,-13.856786820290592,99.12383502209116,-3.0539487893861805,1.4130239465574148,0.14471844439430023,
0.86,30.376511078030006,-9.61253192936795,-14.880175887467288,98.94962890697438,-3.0593978790614518,1.410118626945701,0.1681311347734473,
0.88,31.97319592477196,-8.291539805421092,-15.845573261229031,98.76631335225947,-3.065164895284385,1.40702984543792,0.19310431801347738,
0.9,33.605728278497146,-6.715508133694262,-16.724322721369894,98.57860676245676,-3.071214525325765,1.4037724749912108,0.21953711436887696,
0.92,35.27362169742091,-4.892064871500883,-17.48944517178857,95.97178880990103,-3.077505856195703,1.4003636822281378,0.2473109308986858,
0.94,36.97590540184889,-2.8434864444210297,-18.111321267672068,93.34643118891985,-3.083992837624216,1.3968226437067401,0.27629120435922316,
0.96,38.71160126621551,-0.593964356768244,-18.565532423439493,90.73036269770104,-3.0906246194607165,1.3931703446886725,0.30632841812053463,
0.98,40.47981755122021,1.822902819335841,-18.831731669130523,88.58311591823656,-3.097346085272099,1.3894293017506247,0.3372596641070765,
1.0,42.27974988222846,4.365801060421881,-18.89388699282977,86.46149058750473,-3.104098545033434,1.385623233779097,0.3689105947382313,
1.02,44.110835323356454,6.98759541956562,-18.74287033715956,85.60263948364408,-3.1108205562288034,1.3817767023013876,0.401097645953732,
1.04,45.972753929869924,9.636912468867479,-18.37557019334811,84.78814624286183,-3.1174488420949378,1.3779147286516036,0.4336305214826184,
1.06,47.86518604361121,12.260353399375536,-17.792575670630523,84.00872575560246,-3.1239192729531258,1.3740624218108004,0.46631472942311436,
1.08,49.78781016207485,14.803702061510943,-17.000971904306976,83.26645762031906,-3.130167905610404,1.3702446133029165,0.4989542475431808,
1.1,51.74030324994979,17.21385156491353,-16.01419811923099,82.56221042529911,-3.136132048103028,1.3664855076110582,0.5313542873496706,
1.12,53.72275377774989,19.45326267008283,-14.849879327296907,84.00370758727169,3.0710912157601338,1.3628085261427245,0.5633226664400217,
1.14,55.73574703268578,21.496962099681287,-13.52917500888671,85.92291655204433,3.136221776677094,1.3592363054240622,0.5946700258016386,
1.16,57.77988597341499,23.296673908707824,-12.082542821837382,87.53797349849286,3.1314714079216883,1.355790325550746,0.6252134014527707,
1.18,59.85570549866092,24.804865596538356,-10.53869338519044,89.1826774900149,3.1272359688357683,1.3524904780037428,0.6547806850680882,
1.2,61.96373974084771,25.999061776676367,-8.926239192577983,90.85638890518851,3.1235623439257587,1.3493549321999836,0.6832127870272963,
1.22,64.10409498273951,26.863136922055272,-7.2707707792187675,90.35877456222059,3.1204913911878505,1.3464000346814522,0.7103656461154586,
1.24,66.27644552256206,27.386823865756448,-5.597868926952454,89.8500618915341,3.1180573251051467,1.3436402037899122,0.7361123156036363,
1.26,68.4804622105348,27.5709339767591,-3.93380330680947,89.35096611187194,3.116287315758122,1.341087873479164,0.7603445942448828,
1.28,70.71581799467809,27.42470108968895,-2.3014198608054572,88.85561083772286,3.1152012454651214,1.3387534732763564,0.7829742460905271,
1.3,72.9821883242762,26.964119577828043,-0.7196486994941707,88.35837202761378,3.1148115671857473,1.3366454284949914,0.8039338837496574,
1.32,75.27954599954828,26.21209412455538,0.7961805535187287,89.36759921598062,3.1151232730492757,1.3347701826476446,0.8231774606212747,
1.34,77.60816508499549,25.193720123382434,2.23524359184999,90.38669925291757,3.1161337870107473,1.3331322577261895,0.840680476606582,
1.36,79.96832694457892,23.916658551901577,3.587777243687218,91.39172222193133,3.1178315314163876,1.3317342978890903,0.8564414817324408,
1.38,82.36031673274216,22.415325681944626,4.853408266917789,92.37948517513419,3.1201961100018667,1.3305770951218303,0.8704818415114003,
1.4,84.78442371019703,20.73331749714356,6.031369938353015,93.34782794112459,3.123199740813382,1.329659594832198,0.8828439280989425,
1.42,87.24094144541829,18.898892107522286,7.121948253408058,94.29541148137325,3.1268072545723227,1.3289788985457376,0.893590545724994,
1.44,89.73016795847165,16.938561064268868,8.125731490646194,95.22168899469598,3.130976051546006,1.3285302608992557,0.9028042334534295,
1.46,92.25240580449156,14.876803666285499,9.042837294694195,96.12685456148765,3.135656044694184,1.3283070843539804,0.9105864247815273,
1.48,94.80796209412696,12.735759925043077,9.87224386740921,97.01176738456024,3.140789605373153,1.328300916091187,0.9170564529657091,
1.5,97.39714844922202,10.535103825060098,10.611261526151546,97.87785186867008,-3.042663676291918,1.328501452238222,0.9223503825661583,
1.52,100.02013286757361,8.2919116497023,11.25452618563934,97.96483721342649,-3.1310362161590217,1.3288965513227116,0.9266196585090543,
1.54,102.67693726676451,6.021168742372111,11.794224458590069,98.02471792531793,-3.124963206459417,1.3294722573165505,0.9300295549486167,
1.56,105.36758469883836,3.739937250404494,12.228074140268884,98.07155250576956,-3.1187416351057027,1.3302131350223179,0.9327559123799893,
1.58,108.0921010763618,1.4665678693471085,12.545980218023121,98.10767110832128,-3.112464334358949,1.3311025249801043,0.9349821339233332,
1.6,110.85051508829999,-0.7927114358258835,12.732516989114648,98.13504341020807,-3.1062297106961374,1.3321224043125726,0.9368979998681638,
1.62,113.64285795757095,-3.0293538886633664,12.773723006436354,98.15521186519092,-3.100140993289692,1.3332533907547108,0.9386976456480906,
1.64,116.46916299866494,-5.228160645690151,12.656157527361529,98.16914614098748,-3.0943049589020357,1.3344749350710479,0.9405764962815821,
1.66,119.32946514216232,-7.370980021428368,12.366842598103636,98.1771185736378,-3.088830315488533,1.3357655521333591,0.9427279266713261,
1.68,122.22380043665149,-9.435600913794639,11.894088464267877,98.17863384556631,-3.0838257241335825,1.3371030862820676,0.9453397019835669,
1.7,125.15220553609518,-11.394661614534169,11.228421886024655,98.1724302802135,-3.0793974498948007,1.3384650071890671,0.9485902574482963,
1.72,128.11471718044118,-13.214786428417016,10.363602000024995,98.15656668327668,-3.075646651420984,1.3398287307312036,0.9526448929053124,
1.74,131.1113716767658,-14.856105456269328,9.297720819049701,98.1286026623156,-3.0726663438268993,1.3411719578061787,0.9576519717335783,
1.76,134.14220437647734,-16.27218528772209,8.034673342934312,98.08587757515872,-3.0705380789190775,1.3424730334610673,0.9637391720250743,
1.78,137.20724915886552,-17.41076757987354,6.585137045142681,98.02586387348435,-3.0693284489013672,1.3437113125309879,0.9710099247603908,
1.8,140.3065379618324,-18.21616970165906,4.967083130950909,97.94656319211963,-3.0690856184082373,1.3448674863313026,0.979540330784355,
1.82,143.4399602266135,-18.63125571732326,3.207546972940481,97.12843302293702,-3.0698360079478344,1.345923882492957,0.9893765480598913,
1.84,146.60725984972692,-18.599983021519442,1.3437815981906975,96.27662929525023,-3.0715812643555642,1.3468647561406144,1.0005326121266642,
1.86,149.80817464971258,-18.074017981123056,-0.5768184362035162,95.40632165054596,-3.074295882820099,1.3476765359112584,1.0129890257421292,
1.88,153.04243856949407,-17.017170097215157,-2.497643236845549,94.52132404291174,-3.077925702852121,1.3483480146146836,1.0266922078885052,
1.9,156.30973062240648,-15.410166200046865,-4.3543333212170445,93.3670835940883,-3.082387489746853,1.3488704787891377,1.0415548777994768,
1.92,159.6098652298632,-13.255915634431801,-6.077980035815736,93.18700295711241,-3.0875697993174547,1.3492377709112484,1.057457466952413,
1.94,162.94284640640996,-10.582992896656577,-7.598948055494601,93.03223411872135,-3.0933352783839214,1.3494462716113358,1.0742506707239268,
1.96,166.3086772931362,-7.445597697737439,-8.849908593126823,92.89195793490734,-3.0995242907998373,1.3494948437275116,1.091758928665602,
1.98,169.70735635528715,-3.924083306229511,-9.771770443095702,92.77376280241918,-3.1059598717077446,1.3493847190629564,1.1097849572397012,
2.0,173.13887733536768,-0.12314220900427753,-10.318551990237266,92.68380067173156,-3.1124538691714467,1.3491193131929053,1.1281153626341207,
2.02,176.60338072369544,3.833964519847602,-10.461656584872872,93.40206027523675,-3.1188139095537704,1.34870401597016,1.1465270644397365,
2.04,180.1011568145444,7.813267104786318,-10.192206873739734,94.17011949541333,-3.12485077175763,1.3481459775981022,1.1647942991821794,
2.06,183.63249451990157,11.677799120569164,-9.521510365891576,94.97054959559712,-3.1303857683821956,1.3474539105177104,1.1826959873352245,
2.08,187.19767844029397,15.295419033180664,-8.48105992844269,95.79900933309862,-3.135257731656583,1.3466379150317338,1.2000232239870448,
2.1,190.79698904493492,18.546369938010827,-7.12026069952403,96.64890504775694,-3.139329214997371,1.3457093348420248,1.216586597252453,
2.12,194.43055100711538,21.32887136761205,-5.502385950450707,96.73330083305616,3.007543439285919,1.344680646933513,1.2322230366934095,
2.14,198.09833037251565,23.562825382546997,-3.7004605423859664,96.80533584925706,3.138516408947786,1.3435653914525394,1.2468019178299472,
2.16,201.8002865959502,25.19246770988095,-1.791911037828879,96.8735738928581,3.1373652846568945,1.3423781551603258,1.2602300312462738,
2.18,205.53637616380271,26.18827981339368,0.14486803862396846,96.93118304129315,3.137245742522097,1.3411345031117412,1.272455316764716,
2.2,209.30655307458628,26.542462436161333,2.0363391758940734,96.97333398058844,3.1381281599293223,1.3398508598753078,1.283469155718114,
2.22,213.11076930188162,26.267431657327048,3.8174106048090426,96.99758468493366,3.1399499010450085,1.338544414008294,1.2933070070272479,
2.24,216.94897529320693,25.39167739954897,5.43354293399203,97.00392304021227,-2.999879760386128,1.337232985410134,1.3020474221240501,
2.26,220.82112050865925,23.956296160966822,6.842013646212554,96.99448372495154,-3.1371697187043344,1.3359348439977567,1.3098094688651578,
2.28,224.72715400133245,22.01211110116244,8.012182461713593,96.97299407759367,-3.133183350689834,1.334668473896128,1.316748651568264,
2.3,228.66702503948284,19.617622582415695,8.924897015463038,96.94403697412567,-3.1287628052274425,1.3334522826158193,1.3230514662923638,
2.32,232.6408363441546,16.838359461327574,9.571576610805486,97.69687293285017,-3.1240734163192827,1.3323042610076574,1.32892877239431,
2.34,236.64884813175988,13.745156856603497,9.952513976053757,98.46950236315183,-3.1192851724228157,1.3312416245183356,1.3346082082577297,
2.36,240.69132632573312,10.414065516775889,10.074039413288006,99.24597864325284,-3.1145672082152864,1.3302804306267517,1.3403259433549735,
2.38,244.76853973108294,6.928325743206763,9.946306343806144,100.02703481276482,-3.110082520597956,1.32943513912428,1.3463180054995296,
2.4,248.88076075906346,3.3779301840218015,9.582392606630242,100.81150767697268,-3.105982970130338,1.3287181656718114,1.3528114198366394,
2.42,253.027960122799,-0.14002026512350252,8.99685312543545,100.02137662024205,-3.1024046010874304,1.3281394693788564,1.3600153989913215,
2.44,257.2098002654965,-3.52048217416988,8.206312401461517,99.18848840287377,-3.0994633079436964,1.3277061579108862,1.368112804264418,
2.46,261.42594148530753,-6.653180965802095,7.230706472399744,98.3468617845154,-3.097250988847161,1.3274221449564552,1.3772522861928027,
2.48,265.676049670393,-9.426841669752209,6.093910695469714,97.49201660331633,-3.0958322797075293,1.3272878687914633,1.3875414356280602,
2.5,269.9597964009079,-11.733648292376614,4.825553828263741,96.62053215471099,-3.0952419546148597,1.3273000796531433,1.3990412436391193,
2.52,274.27701236594146,-13.475225418040523,3.4629227111132406,96.5213151653254,-3.0954831177050104,1.3274517082424901,1.4117621862762755,
2.54,278.6276903036931,-14.585335702840279,2.0598607681420686,96.42524281163674,-3.096526026801228,1.3277322825303313,1.4256624164861127,
2.56,283.0118310300726,-15.003446150934186,0.6714118676512486,96.31528667050488,-3.0983082526943497,1.328128109102198,1.4406481227276349,
2.58,287.42943944564905,-14.698492577920556,-0.6416545349843296,96.19682791021651,-3.100736493470916,1.3286219737505376,1.4565759288656965,
2.6,291.88052387633843,-13.673713842627388,-1.8100266065037067,96.07689167696384,-3.1036895031153016,1.3291932871815206,1.4732576075392794,
2.62,296.3650950840228,-11.969248143969338,-2.761821474520394,95.96320392392836,-3.1070223750311454,1.3298185162354548,1.4904671487481824,
2.64,300.88316514157924,-9.662853369684829,-3.429270888878862,95.86302999061304,-3.1105722859988068,1.3304717793091065,1.5079499741187192,
2.66,305.43474621559113,-6.8669306403198505,-3.7555986881390306,95.78198852589695,-3.114165595908562,1.3311256047639652,1.5254339626884188,
2.68,310.0198493003484,-3.7221038125189425,-3.7018296458248625,95.7230565630013,-3.1176260580816026,1.3317518420976717,1.5426418058638625,
2.7,314.63848294877016,-0.387918342886715,-3.252518198618836,95.68596804235231,-3.120783751319944,1.332322700714082,1.5593040867891368,
2.72,319.290806909416,2.968214260075409,-2.419677075232323,96.46358843536746,-3.1234842100921094,1.3328118741404065,1.5751723891610312,
2.74,323.9771357991429,31923.916707803124,-1.2482223417191285,-59848.49479397846,-3.1255971740914434,1.3331951294382272,1.5900301762233242,
2.76,328.69778271047653,-30996.581471131416,0.19785092016761463,-1602.3280807142874,-3.1270241961291756,1.333451401462867,1.6037035524986183,
2.78,333.4530466922252,-900.1706851440249,1.8341465439088862,98.85842360782694,-3.1277046175806773,1.3335644048891246,1.6160718699094208,
2.8,338.24321213900726,13.832870784864863,3.5575863111370642,99.6153814200783,-3.127619493638997,1.333523563552673,1.6270747176879206,
2.82,343.068243595909,15.322435483394452,5.256789992069973,98.75337433340292,-3.1267929925430953,1.3333246571703994,1.636715950778196,
