Temps,Position en z,Acceleration en x avec g,Acceleration en y avec g,Acceleration en z avec g,Angle phi,Angle theta,Angle psi,
0.0,-0.0,-6.815484998886377e-17,-1.3669789378213666,9.72656054531107,-3.01941960595019,1.4311699866353498,-4.985801031981232e-17,
0.02,0.0,-6.815484998886377e-17,-1.3669789378213666,9.72656054531107,-3.01941960595019,1.4311699866353498,-4.985801031981232e-17,
0.04,0.0,-6.815484998886377e-17,-1.3669789378213666,9.72656054531107,-3.01941960595019,1.4311699866353498,-4.985801031981232e-17,
0.06,0.0006120572696704027,-6.815484997575372e-17,-1.366978937558419,12.816295366784612,-3.01941960595019,1.4311699866353498,-4.985801031981232e-17,
0.08,0.004435854414894819,-6.815484989384931e-17,-1.3669789359156652,22.851926431919626,-3.01941960595019,1.4311699866353498,-4.985801031981232e-17,
0.1,0.01567546923350701,-6.815484965310062e-17,-1.3669789310869793,34.04565737608811,-3.01941960595019,1.4311699866353498,-4.985801031981232e-17,
0.12,0.04042874254662403,-6.815484912289404e-17,-1.3669789204526483,53.64330870931457,-3.01941960595019,1.4311699866353498,-4.985801031981232e-17,
0.14,0.08586044415998141,-6.815484814976267e-17,-1.3669789009345938,70.22834374733782,-3.01941960595019,1.4311699866353498,-4.985801031981232e-17,
0.16,0.1585435019142958,-6.815484659291664e-17,-1.3669788697089986,86.83815943609561,-3.01941960595019,1.4311699866353498,-4.985801031981232e-17,
0.18,0.264926552960857,-6.815484431422837e-17,-1.3669788240054448,102.79517314024834,-3.01941960595019,1.4311699866353498,-4.985801031981232e-17,
0.2,0.41119915612246655,-6.815484118111966e-17,-1.366978761164816,118.09674137254157,-3.01941960595019,1.4311699866353498,-4.985801031981232e-17,
0.22,0.6006855751995352,-6.815483712238589e-17,-1.366978679758965,119.58889161177872,-3.01941960595019,1.4311699866353498,-4.985801031981232e-17,
0.24,0.8339712179007782,-6.815483212548788e-17,-1.3669785795363931,121.05589142084494,-3.01941960595019,1.4311699866353498,-4.985801031981232e-17,
0.26,1.1116375582863829,-6.815482617797062e-17,-1.3669784602472916,122.52541864054486,-3.01941960595019,1.4311699866353498,-4.985801031981232e-17,
0.28,1.4343144949789775,-6.815481926634192e-17,-1.3669783216210476,124.23687291275613,-3.01941960595019,1.4311699866353498,-4.985801031981232e-17,
0.3,1.8026805304084692,-6.815481137606847e-17,-1.3669781633661675,125.95190481532191,-3.01941960595019,1.4311699866353498,-4.985801031981232e-17,
0.32,2.2172420885230735,-6.815480249630285e-17,-1.3669779852650847,126.79473735016371,-3.01941960595019,1.4311699866353498,-4.985801031981232e-17,
0.34,2.6783326879870817,-6.815479261990122e-17,-1.366977787174516,127.63639415567678,-3.01941960595019,1.4311699866353498,-4.985801031981232e-17,
0.36,3.1862859375958226,-6.815478173971777e-17,-1.3669775689511376,128.4795073312897,-3.01941960595019,1.4311699866353498,-4.985801031981232e-17,
0.38,3.741436023716977,-6.815476984859437e-17,-1.3669773304513795,129.32408067307682,-3.01941960595019,1.4311699866353498,-4.985801031981232e-17,
0.4,4.344117711796936,-6.815475693936045e-17,-1.3669770715314216,130.1701179903398,-3.01941960595019,1.4311699866353498,-4.985801031981232e-17,
0.42,4.994656826697332,-6.815474300503694e-17,-1.3669767920512859,130.96955913123415,-3.01941960595019,1.4311699866353498,-4.985801031981232e-17,
0.44,5.693370205238874,-6.815472803883733e-17,-1.3669764918748541,131.77019545575124,-3.01941960595019,1.4311699866353498,-4.985801031981232e-17,
0.46,6.440575198387563,-6.815471203396405e-17,-1.3669761708657893,132.57222324898748,-3.01941960595019,1.4311699866353498,-4.985801031981232e-17,
0.48,7.236613560262693,-6.815469498309686e-17,-1.3669758288772687,133.49605028801824,-3.01941960595019,1.4311699866353498,-4.985801031981232e-17,
0.5,8.081851586795885,-6.81546768783898e-17,-1.3669754657519264,134.4220420294098,-3.01941960595019,1.4311699866353498,-4.985801031981232e-17,
0.52,8.975367859041523,-6.815465773957938e-17,-1.366975081885617,128.8453631957575,-3.01941960595019,1.4311699866353498,-4.985801031981232e-17,
0.54,9.914945203405876,-6.815463761415668e-17,-1.3669746782308667,123.22627973016964,-3.01941960595019,1.4311699866353498,-4.985801031981232e-17,
0.56,10.89846379997536,-6.81546165475275e-17,-1.3669742556983782,118.13974013880332,-3.01941960595019,1.4311699866353498,-4.985801031981232e-17,
0.58,11.923717954554876,-10.6689340623109,-4.334527557004057,111.85388057791867,-3.0197912409487384,1.430977737350483,0.00151961431267221,
0.6,12.988600399242117,-21.23217453155724,-6.454572096594166,107.20906217378626,-3.020923367243734,1.4303917162857689,0.006154051858694222,
0.62,14.092367671036993,-22.132563513982934,-7.843145023988581,107.92940837108034,-3.0228389717310655,1.429399330299871,0.014007443653073031,
0.64,15.235352807272212,-22.83384601656655,-9.347357730711463,108.62255490104346,-3.0255554836028544,1.4279908025260948,0.025164683064710786,
0.66,16.41789241619365,-23.349991105981214,-10.973456461923202,109.25076235434692,-3.029086405284858,1.4261583231294641,0.039698598866383585,
0.68,17.64029528269635,-23.62409838756664,-12.717251173295429,109.68414193467795,-3.033440525552622,1.4238964341579874,0.05766749257653454,
0.7,18.902841887901396,-23.592991319582893,-14.568100137125189,110.04423944616225,-3.0386209829180317,1.4212024654136692,0.07911235951648404,
0.72,20.205249071575967,-23.185524031950596,-16.500835114217402,107.50019367299643,-3.0446240969133083,1.4180770552387196,0.10405350061352331,
0.74,21.54666606120278,-22.320661231455784,-18.476414276666826,104.85941659586193,-3.051437771018194,1.4145248472538778,0.13248569533813584,
0.76,22.92622175264426,-20.931739989635368,-20.449727908418016,102.08635937517924,-3.059040229396594,1.4105549649411702,0.1643750588102596,
0.78,24.34301667096019,-18.962899119157733,-22.363840119768373,99.18705665620632,-3.0673988799044323,1.4061813650622113,0.19965663522310134,
0.8,25.796134467437778,-16.371216953627112,-24.15021029195841,96.23033496774521,-3.076469271101668,1.4014230933324106,0.23823241607751994,
0.82,27.28510515406093,-13.134279316898098,-25.737741366433063,95.51996878016557,-3.086194318576192,1.3963043604217322,0.2799702832002579,
0.84,28.809908146795415,-9.256058270225003,-27.05016508832258,94.80252972008721,-3.096503987630365,1.3908543519631018,0.32470444694227385,
0.86,30.37052071226265,-4.75879204333436,-28.0000860063612,94.0776596413503,-3.1073150841591044,1.3851069917299863,0.3722355230817864,
0.88,31.96691409008692,0.3127725091033282,-28.497133311453286,93.36580882172231,-3.1185312247503125,1.3791006649632187,0.42233020822152156,
0.9,33.599053031263544,5.891518695419937,-28.452349383552914,92.68962272461252,-3.13004292983048,1.3728779901494987,0.47471998779243524,
0.92,35.266421250105196,11.852393649425707,-27.797959834789484,89.6516965607257,3.0836736752057172,1.3664848399508984,0.5291051522132713,
0.94,36.96801855946001,18.02609415072465,-26.483774838169747,86.66782542397578,3.129723572874226,1.3599689425151167,0.5851619632387441,
0.96,38.70283582889115,24.235507471931403,-24.495055424739164,83.77813971626901,3.1180796828005324,1.353378656077778,0.6425488474221042,
0.98,40.46994828593117,30.29040729766453,-21.851012590702027,81.4504876753372,3.106659932851442,1.3467616826895827,0.7009138456068299,
1.0,42.268516698325385,36.000514789576854,-18.60326779157859,79.24528416947021,3.0955977295814785,1.340163845143161,0.7599028079255562,
1.02,44.09794007862388,41.18938776750053,-14.835324573870457,78.39831516371795,3.085020279226617,1.3336280325828627,0.819167888798392,
1.04,45.95785718348216,45.704864663631284,-10.65371399841336,77.68499181391621,3.075045020012333,1.327193381574255,0.878375964005439,
1.06,47.847906283414254,49.424542082496124,-6.176382411177117,77.0856902744367,3.065776516927198,1.3208947615749462,0.9372165678686167,
1.08,49.76772347299101,52.2614576045744,-1.5284243999725078,76.58893066483809,3.057303972074086,1.3147625557884939,0.9954091971204237,
1.1,51.716943391580244,54.16604836302368,3.1667004104623286,76.17998548309095,3.049699477571864,1.308822717773252,1.0527097256683362,
1.12,53.69560674407817,55.14059624638826,7.799334383598567,77.95072376838846,3.0430181220311057,1.3030973125790832,1.1089136337851144,
1.14,55.704243634440076,55.22718584346984,12.276514898496673,80.21838383611377,3.037299546118638,1.2976053997206198,1.1638566690482914,
1.16,57.74340095656247,54.45444498429012,16.511715966196356,82.18713090152319,3.0325672884959043,1.2923633753136243,1.2174198066318447,
1.18,59.8135585610079,52.85723087487909,20.448554071916583,84.17832819052612,3.02882810273456,1.287385223441622,1.2695342498049662,
1.2,61.91519592766086,50.50818257106181,24.054505105246996,86.18168268857323,3.0260734425347153,1.282683170654295,1.320181940473071,
1.22,64.04837286042974,47.480054042493684,27.317581924779574,85.99017025406887,3.0242811917102776,1.2782682744974976,1.3693950424686312,
1.24,66.2127264130673,43.84408144884099,30.23959055555776,85.7601395297831,3.0234173808332985,1.2741508750645123,1.4172547044189447,
1.26,68.40789270004112,32442.87038791667,32.83299974052174,-60225.688680798965,3.0234381530993737,1.270340959361972,1.4638885576698448,
1.28,70.63351261051264,-31941.70797191988,35.11902158094158,-696.2805521729679,3.024291773270491,1.2668484214883589,1.5094672767657855,
1.3,72.88923247633105,-396.4355497796096,37.123073037699086,84.93566741018988,3.025920555844257,1.2636832109092797,1.5542004426369533,
1.32,75.17499324512302,24.626322369111563,38.871417434935914,86.11701164333373,3.0282627066569865,1.2608553890074177,1.5983318051633502,
1.34,77.49103428864737,18.937125755862535,40.386140565312466,87.28743485753922,3.031253855523534,1.2583751505237852,1.642134572207321,
1.36,79.83760549333742,12.93461936145862,41.670892406045134,88.42444662768106,3.0348260377237803,1.25625292459775,1.6859112546929966,
1.38,82.21496427612536,6.652718330953372,42.74348133171768,89.52534093956538,3.0389095026127686,1.2544992410493512,1.7299874669037911,
1.4,84.62337644414006,0.15945262218469125,43.594914741795876,90.58773540676242,3.043436790614406,1.2531243033978243,1.7747002418811637,
1.42,87.06311693231468,-6.511865970748365,44.200340088691235,91.60846849052261,3.0483442286226357,1.2521376348311584,1.8203907926581517,
1.44,89.53447050698425,-13.31947505656041,44.519153006521464,92.583588544428,3.0535734289934924,1.2515476348774803,1.8673966155832262,
1.46,92.03773241728294,-20.207205918528942,44.49567237659493,93.50853880004236,3.0590728331668045,1.2513610271956797,1.9160427443673318,
1.48,94.5732089698488,-27.098922873658314,44.06130538862278,94.37854034062208,3.064799270125224,1.251582177141618,1.9666320435086748,
1.5,97.14121799698589,-33.89326008308905,43.13855748355077,95.1891792819661,3.0707194508010427,1.2522122580971087,2.0194344627373324,
1.52,99.74194436909654,-40.458141429542025,41.64680971087276,95.17505844981523,3.0768112590553622,1.2532482458842458,2.074675188092647,
1.54,102.37543783098884,-46.628119949767765,39.51167602143255,95.08486234722433,3.08306463528883,1.2546817318028851,2.132521665404481,
1.56,105.04175672380461,-52.24372931643668,36.67268133254257,94.9320133880306,3.0894814745257935,1.2564981751073685,2.1930742535248635,
1.58,107.74096913870531,-57.11543707179365,33.10086318265003,94.72172891857723,3.096074664950808,1.2586761077090594,2.2563570100775796,
1.6,110.47315277467568,-60.98542636572622,28.807909337379797,94.46401440060264,3.1028663781698542,1.2611853602628316,2.3223007868420464,
1.62,113.23839442480445,-63.59663984785646,23.853586559034532,94.17462963278692,3.109884508885856,1.2639854566752031,2.390726618579632,
1.64,116.03678856993503,-64.73034273631608,18.360359542971487,93.87468320088487,3.1171568551809026,1.2670248617849973,2.461334371267668,
1.66,118.86843560818471,-64.21231292660357,12.514592070238248,93.58981411886352,3.1247033441629743,1.2702408560513834,2.533694356529374,
1.68,121.73343975574522,-61.938379028439684,6.561595382082908,93.34848946612152,3.1325266892913493,1.273560241814093,2.6072432142049426,
1.7,124.63190667489732,-57.89707450520961,0.7918937827846015,93.17941947975761,3.1406023210869707,1.2769010284430553,2.681285534427938,
1.72,127.56394091365914,-52.18435321938212,-4.480842843844373,93.1082834505672,-3.0262888229294442,1.2801751250263758,2.75500266454062,
1.74,130.52964326498167,-45.00614589267392,-8.947902648951462,93.15416545074211,-3.1259641620999608,1.2832919086893937,2.8274699052575203,
1.76,133.5291081532985,-36.66731723622082,-12.336050759946334,93.3262505322032,-3.1176787201738976,1.286162380949562,2.89768293624942,
1.78,136.562421140576,-27.54757755014104,-14.435762748884656,93.6213941768527,-3.1096572832353453,1.2887035054510063,2.9645936997939804,
1.8,139.6296567745883,-18.057044289248523,-15.119601347187379,94.0233044270602,-3.1021332124019922,1.2908420904701845,3.027153210564559,
1.82,142.73073863993756,-8.59776044044763,-14.35457338592678,93.78502079487906,-3.0953615133905124,1.2925178013952798,3.084359255258788,
1.84,145.86543526020597,0.46598382405932526,-12.20224185468568,93.57329195592179,-3.0895997682951846,1.2936851428401985,3.1353071108171524,
1.86,149.0334969995,8.840833938453843,-8.81045871683302,93.35773073342118,-3.085086975041885,1.2943142319587497,-2.9871265293503786,
1.88,152.234657998174,16.319919091313515,-4.397185837877342,93.09431746850396,-3.082023080860557,1.29439051979589,-3.0676021029344986,
1.9,155.4685858416164,22.782195648065073,0.767945062435702,92.48360647817928,-3.080551843364442,1.2939137999232897,-3.0391901310164684,
1.92,158.73506947198078,28.179708216726286,6.383327018044167,92.73194917675825,-3.080749063491595,1.2928969052277626,-3.018812980758868,
1.94,162.0340728540965,32.5184498927755,12.134223494976688,92.86529312928658,-3.082617426878252,1.2913644298662386,-3.0063186074632227,
1.96,165.3655474314097,35.82607237377891,17.708198734893283,92.8620275074689,-3.086087846822419,1.289351817943327,-3.0013040246520126,
1.98,168.72942878560752,38.12816833514206,22.811687650205457,92.7343456986126,-3.091026684852733,1.286904869745547,-3.003129644756717,
2.0,172.12563721020382,39.43672223642041,27.18804219171408,92.50758074051822,-3.0972477194892916,1.2840794333740781,-3.010945016276834,
2.02,175.55422749554901,39.7394871051793,30.63299858337419,92.99292615009618,-3.1045271358811637,1.2809411000102915,-3.0237235415941015,
2.04,179.01539282794445,38.99616156734529,33.008054191386506,93.47120565292606,-3.1126195994894723,1.2775647069974463,-3.040302971218707,
2.06,182.50931755302892,37.14810277587004,34.24736912538952,93.9674072810773,-3.1212735544162986,1.274033368720824,-3.059429226522427,
2.08,186.0361763967257,34.13725423783126,34.36082999090784,94.51759759254074,-3.130244286269899,1.2704368521265843,-3.079801282297096,
2.1,189.59613732839674,29.927023738789778,33.42754630737045,95.1487775529612,-3.139303695760392,1.2668692561976151,-3.100114777839998,
2.12,193.18921641131902,24.520815629997635,31.579375627921095,95.09700330975839,3.001788775812882,1.2634260889694118,-3.1191022933841883,
2.14,196.81527910982095,17.97879269704042,28.980713146683875,95.12547886466861,3.126294030349295,1.2602009220107828,-3.135568912012988,
2.16,200.47419328126978,10.418972567962864,25.801803028166937,95.23940617195898,3.118103486222789,1.2572820101707682,2.9991020336661682,
2.18,204.16583686210686,2.0286569523984586,22.198959257421073,95.41607909542688,3.110503784684634,1.2547488839710093,3.126496908259034,
2.2,207.89010247893327,-6.93665937770608,18.292073583573416,95.62466934810689,3.1036151900921696,1.2526690255264754,3.123638637338423,
2.22,211.64690161371615,-16.176539631687284,14.155792002842134,95.83023466186991,3.0975465563840037,1.2510950246613903,3.1268570333445194,
2.24,215.43616811201338,-25.355007078164196,9.820281962013148,95.9979047832609,3.092399265732862,1.2500622249197435,3.1366516236402058,
2.26,219.25786082348412,-34.11194723916995,5.282155203272079,96.09686830522509,3.0882695773188966,1.2495868629217457,-2.987895199198835,
2.28,223.11196516617335,-42.07749590566324,0.5237611908155495,96.10386158981264,3.0852487617031317,1.2496647472512203,-3.106098756125771,
2.3,226.9984934580751,-48.88883770948054,-4.462753498561943,96.00591070047778,3.0834205948088793,1.2502705612950558,-3.0753565926574877,
2.32,230.9176329373823,-54.211110264086294,-9.651590622435346,96.58673762231787,3.0828560344915195,1.251357932611059,-3.0378430851580056,
2.34,234.8697469567345,-57.76297306268509,-14.963188078724496,97.09217343102037,3.0836052252674118,1.2528604553383829,-2.9939806611188673,
2.36,238.85522263190305,-59.3470181053228,-20.254419960309566,97.52731554315339,3.0856873471472626,1.254693926097776,-2.944381397374892,
2.38,242.87446282516748,-58.8658798951665,-25.312336542499633,97.9252734039188,3.089079252792495,1.2567597006232396,-2.8898423066100833,
2.4,246.9278808691312,-56.34435618352541,-29.872390124306882,98.325286907082,3.0937044663367357,1.2589491984976975,-2.8313353335717886,
2.42,251.01559457984743,-51.95213643734623,-33.64004380346924,97.19276930504175,3.0994247357216995,1.2611496177123505,-2.769987603954011,
2.44,255.1374125155893,-45.995153888527945,-36.32694304362927,96.10023787575824,3.1060363177911365,1.263250347271259,-2.7070513145207076,
2.46,259.2931274338143,-38.894953091320886,-37.68965915416707,95.11376752878262,3.1132730385921965,1.2651494710021507,-2.64386220856227,
2.48,263.48251839363684,-31.145049694950316,-37.55874185262824,94.24753571489592,3.120817055345291,1.2667595913557086,-2.5817879984793626,
2.5,267.70534651711927,-23.25802677704652,-35.85912146441021,93.50049920456695,3.128316937120665,1.2680122656464716,-2.522169501597156,
2.52,271.96150289093276,-15.711895432416943,-32.618276075626795,93.64721226058074,3.1354112430931846,1.2688605577892653,-2.46625862600476,
2.54,276.2510100508719,-8.912056313595063,-27.96961519392872,93.8891638301554,-2.9819011704217,1.2692798768300622,-2.4151550703904365,
2.56,280.5738690651439,-3.1678868807050398,-22.14492054893821,94.16957114101376,-3.1361388458351294,1.2692676205703832,-2.369743816215587,
2.58,284.9300563041167,1.3687902261491107,-15.410699265696653,94.44960989894903,-3.1321377666103754,1.2688400208958508,-2.3306566516772786,
2.6,289.31952576555955,4.68889712805843,-8.090444675306777,94.69462536095327,-3.1295873938742496,1.2680276605080105,-2.2982525162438607,
2.62,293.7422107156727,6.824877508764237,-0.5361942465807132,94.87780775968639,-3.128562568564324,1.266872014322667,-2.2726017452059426,
2.64,298.19802573089044,7.862066245331441,6.881001387938795,94.98358946147442,-3.129051500574446,1.2654224612792317,-2.253483877072252,
2.66,302.68686905877485,7.908884505122828,13.784836004909897,95.00929329059514,-3.13096071866395,1.2637340036625389,-2.2403987982037465,
2.68,307.2086252415555,7.071083377757805,19.809638795314967,94.96474597937926,-3.1341249069593813,1.2618657183090247,-2.232590487062103,
2.7,311.76316799992344,5.436023794748792,24.619472813492052,94.86986719432826,-3.138320340161098,1.2598797539607656,-2.2290824883893072,
2.72,316.35051509784154,3.0697119785521663,27.93101852772761,95.5469912862685,2.9690703549846664,1.257840547823279,-2.2287240340090313,
2.74,320.9708361987454,0.030702536041402162,29.54462717745822,96.2480812419145,3.1344712340169743,1.2558134975469912,-2.2302480731177456,
2.76,325.62430617441214,-3.6053697903234254,29.361184888730794,96.97223685820343,3.1288642964814186,1.2538627241207703,-2.232338784955955,
2.78,330.311099097774,-7.742536911896195,27.36328531232327,97.70452571572702,3.123376332146632,1.25204943821103,-2.2336932539953223,
2.8,335.0313888859454,-12.251557120004005,23.64319011738638,98.46305861169085,3.1182799196545505,1.2504301314686537,-2.233080116926436,
2.82,339.78505473434797,-16.904144004832137,18.386254249803585,97.64974985388137,3.1138162105504037,1.2490534621976888,-2.229401330078173,
2.84,344.5716790973381,-21.39707556954358,11.864973697760318,96.80093948838373,3.110185607011465,1.2479569954400105,-2.2217477774896945,
