Temps,Position en z,Acceleration en x avec g,Acceleration en y avec g,Acceleration en z avec g,Angle phi,Angle theta,Angle psi,
0.0,-0.0,-6.817293572131451e-17,-1.367341682590657,9.729141608459434,-3.01941960595019,1.4311699866353498,-4.985801031981232e-17,
0.02,0.0,-6.817293572131451e-17,-1.367341682590657,9.729141608459434,-3.01941960595019,1.4311699866353498,-4.985801031981232e-17,
0.04,0.0,-6.817293572131451e-17,-1.367341682590657,9.729141608459434,-3.01941960595019,1.4311699866353498,-4.985801031981232e-17,
0.06,0.0006116174909797958,-6.817293570821432e-17,-1.3673416823279068,12.81665637700425,-3.01941960595019,1.4311699866353498,-4.985801031981232e-17,
0.08,0.004434095310257017,-6.817293562634087e-17,-1.3673416806857746,22.85228614819401,-3.01941960595019,1.4311699866353498,-4.985801031981232e-17,
0.1,0.015671511094925407,-6.817293538564722e-17,-1.3673416758581924,34.04601713080474,-3.01941960595019,1.4311699866353498,-4.985801031981232e-17,
0.12,0.04042170568133552,-6.817293485552407e-17,-1.3673416652255346,53.64366850254011,-3.01941960595019,1.4311699866353498,-4.985801031981232e-17,
0.14,0.08584944889048113,-6.817293388250957e-17,-1.3673416457098242,70.22870357913928,-3.01941960595019,1.4311699866353498,-4.985801031981232e-17,
0.16,0.15852766857836173,-6.81729323258185e-17,-1.3673416144873372,86.83851930654022,-3.01941960595019,1.4311699866353498,-4.985801031981232e-17,
0.18,0.2649050019115742,-6.817293004732784e-17,-1.3673415687877466,102.79553304940345,-3.01941960595019,1.4311699866353498,-4.985801031981232e-17,
0.2,0.41117100772825155,-6.817292691446376e-17,-1.3673415059520249,118.09710132047493,-3.01941960595019,1.4311699866353498,-4.985801031981232e-17,
0.22,0.6006499498441601,-6.8172922856024e-17,-1.3673414245520705,119.58925159855823,-3.01941960595019,1.4311699866353498,-4.985801031981232e-17,
0.24,0.8339272359833945,-6.817291785946976e-17,-1.3673413243363939,121.05625144653828,-3.01941960595019,1.4311699866353498,-4.985801031981232e-17,
0.26,1.1115843402215457,-6.817291191234649e-17,-1.3673412050551943,122.5257787052202,-3.01941960595019,1.4311699866353498,-4.985801031981232e-17,
0.28,1.4342511611966697,-6.817290500116236e-17,-1.3673410664378671,124.23723301648167,-3.01941960595019,1.4311699866353498,-4.985801031981232e-17,
0.3,1.8026062013541262,-6.817289711138463e-17,-1.3673409081929295,125.9522649581661,-3.01941960595019,1.4311699866353498,-4.985801031981232e-17,
0.32,2.217155884657606,-6.817288823216619e-17,-1.3673407301028218,126.79509753219494,-3.01941960595019,1.4311699866353498,-4.985801031981232e-17,
0.34,2.6782337297869017,-6.817287835636346e-17,-1.3673405320242646,127.63675437696405,-3.01941960595019,1.4311699866353498,-4.985801031981232e-17,
0.36,3.1861733455528656,-6.817286747683083e-17,-1.36734031381394,128.47986759190204,-3.01941960595019,1.4311699866353498,-4.985801031981232e-17,
0.38,3.7413089183387296,-6.817285558641045e-17,-1.3673400753282823,129.32444097308326,-3.01941960595019,1.4311699866353498,-4.985801031981232e-17,
0.4,4.343975213606457,-6.817284267793193e-17,-1.3673398164234756,130.1704783298096,-3.01941960595019,1.4311699866353498,-4.985801031981232e-17,
0.42,4.994498056233279,-6.817282874441648e-17,-1.367339536959547,130.96991951023656,-3.01941960595019,1.4311699866353498,-4.985801031981232e-17,
0.44,5.693194283055525,-6.81728137790778e-17,-1.367339236800383,131.77055587435655,-3.01941960595019,1.4311699866353498,-4.985801031981232e-17,
0.46,6.440381245054849,-6.817279777511853e-17,-1.3673389158096503,132.57258370726518,-3.01941960595019,1.4311699866353498,-4.985801031981232e-17,
0.48,7.2364006963662115,-6.817278072521866e-17,-1.3673385738405313,133.4964107860384,-3.01941960595019,1.4311699866353498,-4.985801031981232e-17,
0.5,8.081618932936932,-6.817276262153257e-17,-1.3673382107356664,134.4224025672426,-3.01941960595019,1.4311699866353498,-4.985801031981232e-17,
0.52,8.975114535837118,-6.817274348379601e-17,-1.3673378268908953,128.84572377347334,-3.01941960595019,1.4311699866353498,-4.985801031981232e-17,
0.54,9.914670331488784,-6.817272335949854e-17,-1.3673374232587139,123.22664034783905,-3.01941960595019,1.4311699866353498,-4.985801031981232e-17,
0.56,10.898166499994117,-6.817270229404448e-17,-1.3673370007497947,118.14010079649663,-3.01941960595019,1.4311699866353498,-4.985801031981232e-17,
0.58,11.923694983918718,-6.81726803283024e-17,-1.3673365601838368,113.59034047653005,-3.01941960595019,1.4311699866353498,-4.985801031981232e-17,
0.6,12.989072865948048,-0.009853672031234186,-0.014707557937533089,107.30255589576286,-3.019419761412926,1.4311697850433074,1.7368106968717859e-06,
0.62,14.09317809131463,-0.06047693089139474,-0.024591919557034617,108.11549103622386,-3.0194208692057423,1.4311683480660664,1.4117350627367024e-05,
0.64,15.236341929506962,-0.12487446945491126,-0.04853432124654701,108.97238672595732,-3.019423935261587,1.4311643687679543,4.840281327170565e-05,
0.66,16.41890432226728,-0.1932726320036178,-0.07797338689483153,109.8293065550997,-3.0194300161857397,1.4311564701177264,0.00011646026626128294,
0.68,17.641180326823317,-0.2654145189595262,-0.11344160104738235,110.56057865996631,-3.0194402115697208,1.4311432122631254,0.00023070110056821124,
0.7,18.903459904881696,-0.34102358571885283,-0.1554657763091845,111.29078168907512,-3.019455655749845,1.4311231001607378,0.0004040165135996541,
0.72,20.205472042543825,-0.4196763737255926,-0.20447084638702795,109.19042912137702,-3.019477507194336,1.4310945939202888,0.0006496896943000837,
0.74,21.546380578678367,-0.5006214167467932,-0.26074289151879004,107.06596815362434,-3.019506932834744,1.4310561254374718,0.0009812538560608282,
0.76,22.925332117041528,-0.5831139757119486,-0.324534028239197,104.87824363688935,-3.019545092660654,1.4310061144333943,0.0014123554136572958,
0.78,24.34144805615609,-0.6663666975766176,-0.3960096632094241,102.62674685127502,-3.019593123911529,1.430942984789272,0.0019566146314963,
0.8,25.793836198197347,-0.7495100147643003,-0.47523816772991767,100.37060658278124,-3.019652124328447,1.4308651819065494,0.002627477445320683,
0.82,27.282056286140445,-0.8316990210337051,-0.5623515839594027,100.40078586799915,-3.019723135979517,1.4307711890503505,0.003438076082213143,
0.84,28.806124006654578,-0.9122983619317016,-0.6575056165920392,100.4483258899227,-3.019807132401601,1.430659538754694,0.004401132465229235,
0.86,30.36605808398615,-0.9903863342488595,-0.7606411556753239,100.494752980029,-3.019905001648545,1.4305288291431055,0.005528819387290176,
0.88,31.96187669837614,-1.0648775704699331,-0.871582179656963,100.54003524099066,-3.0200175271098835,1.430377742706727,0.006832600700082954,
0.9,33.59359746621604,-1.1346029054525575,-0.9900330936688845,100.5841402813435,-3.0201453673274545,1.4302050658547087,0.008323065098598611,
0.92,35.260758066476235,-1.1981903184624103,-1.1152551664401098,98.20705186141848,-3.0202890334697257,1.4300097112450372,0.010009736157031669,
0.94,36.9624116653513,-1.2538820911719006,-1.2461976259777823,95.80372684431046,-3.0204488621102503,1.4297907469682396,0.011900823109970392,
0.96,38.69760542092871,-1.3002400799869671,-1.3819097227290018,93.39616452380571,-3.0206249931188283,1.4295474186637342,0.014003032867687861,
0.98,40.46547461718269,-1.3359909125006824,-1.5213859359676623,91.4381124057042,-3.0208173503276345,1.4292791676831464,0.016321416372800268,
1.0,42.26524359334833,-1.3599806930406746,-1.6635194017183177,89.48089247977057,-3.0210256241855395,1.4289856463310149,0.018859240468953486,
1.02,44.09638096479365,-1.3711354532671245,-1.807251930599723,88.75673675592004,-3.0212492556749497,1.4286667313677448,0.0216178749651885,
1.04,45.95860134359218,-1.3686121588861002,-1.951495575330993,88.04310808648488,-3.0214874231845363,1.4283225326698759,0.02459672203044795,
1.06,47.85162087228534,-1.3514822359414964,-2.0948470008623428,87.32756407145263,-3.0217390287851305,1.427953403538509,0.027793131273962435,
1.08,49.775154808250974,-1.3188949327341795,-2.2357953737813725,86.61014384173362,-3.0220026862194813,1.4275599498026599,0.031202325042000812,
1.1,51.72891753077732,-1.2701670964836262,-2.372745017232669,85.8908955799178,-3.0222767119536518,1.427143036149426,0.034817347323816104,
1.12,53.713039880787754,-1.2049024037426854,-2.5045527713664573,87.2776519919086,-3.0225591202002904,1.4267037878433435,0.03862905226416622,
1.14,55.72815599157989,-1.1230852886643037,-2.630241834177058,89.10321620588093,-3.022847621510196,1.4262435854752167,0.04262615367248911,
1.16,57.77491895977056,-1.0245817120240819,-2.7482173827115877,90.58803740744958,-3.0231396216574127,1.4257640629249124,0.04679524568266826,
1.18,59.8539135111674,-0.9093046417602445,-2.856696270476657,92.06970041648734,-3.0234322241321308,1.4252671059174546,0.051120816486736845,
1.2,61.965723585955864,-0.7774492043336325,-2.9539431162115086,93.55220927041903,-3.0237222385991993,1.4247548466078632,0.055585294909157694,
1.22,64.1104986399618,-0.6294651731710125,-3.037608902716072,92.84052714659234,-3.024006196794073,1.4242296550024665,0.06016912186034525,
1.24,66.28794831713957,-0.46611024675379475,-3.105335446801652,92.1006577968605,-3.024280380452425,1.423694127092425,0.06485084550270187,
1.26,68.49777623010914,-0.2887528623211751,-3.1554843539184634,91.35931400866193,-3.0245408590623186,1.4231510630364679,0.06960730081663584,
1.28,70.73968517585286,-0.09916916579231089,-3.1865989004583715,90.61657808533226,-3.024783536201591,1.42260343940167,0.0744138382624137,
1.3,73.01337717310959,0.10053191153812703,-3.197432597052913,89.87252379313169,-3.0250042046811276,1.42205437698437,0.07924458782135824,
1.32,75.31885295293384,0.30796540556996577,-3.187396760212692,90.64074027410665,-3.025198608797598,1.4215071046775156,0.08407275507135217,
1.34,77.65641594655608,0.5205893047683574,-3.1561386017404334,91.42925584340294,-3.0253625088769764,1.420964921322485,0.0888709343627885,
1.36,80.02637333360481,0.7357000626906739,-3.103143484271114,92.21814135218753,-3.0254917551701177,1.4204311562017724,0.09361142985738276,
1.38,82.42903219035156,0.9503967293627915,-3.028190491752951,93.00735960647654,-3.02558236998035,1.4199091268366661,0.0982665968177352,
1.4,84.86469951865658,1.161611974249328,-2.931389105821539,93.79685505143682,-3.025630636060865,1.4194020942720054,0.10280920237252025,
1.42,87.33368227702103,1.3661583075333046,-2.813205232857928,94.58655380192695,-3.025633190026924,1.4189132163824705,0.10721280145268344,
1.44,89.83628741315727,1.5607791823401198,-2.6744822905736108,95.37636455594522,-3.0255871192421218,1.418445499821846,0.11145212290414087,
1.46,92.37282189738401,1.7422037608121075,-2.516456446133511,96.16618042409299,-3.0254900603414088,1.4180017513171659,0.11550346015519043,
1.48,94.94359275605791,1.907204163539089,-2.3407651408849848,96.95588164891177,-3.025340297266654,1.4175845290855793,0.11934506023146677,
1.5,97.54890710416417,2.0526540104877213,-2.1494481110097583,97.74533913319334,-3.025136856420818,1.4171960952216511,0.12295750438282545,
1.52,100.18892149517558,2.175522721294585,-1.9448315289699087,97.77228099134494,-3.024879597403342,1.4168383693564648,0.12632407797860515,
1.54,102.86363967021526,2.2728883971923914,-1.729697825932949,97.78640736740066,-3.0245692984840082,1.4165128830885196,0.12943113397893735,
1.56,105.57306303912688,2.342220080346995,-1.5073331701181625,97.79921175103516,-3.024207726562624,1.4162207398163076,0.1322684136087455,
1.58,108.31719296865404,2.3813780771350515,-1.281338574045489,97.8106048944461,-3.023797690355485,1.4159625805302938,0.1348293196370246,
1.6,111.09603080340857,2.3886398676414653,-1.0555765794970304,97.82051193760097,-3.0233430748067684,1.415738556123153,0.13711113810133466,
1.62,113.90957787977277,2.3627477545112026,-0.8341080568876804,97.82887604407425,-3.0228488537226075,1.4155483072404857,0.13911520082956552,
1.64,116.7578355319576,2.3029520840111144,-0.6211196642024452,97.8356609351896,-3.0223210778356546,1.4153909526376394,0.14084698167111512,
1.66,119.64080508957579,2.209049671241458,-0.42084286095796736,97.84085207397214,-3.021766835849273,1.4152650869158174,0.1423161201775736,
1.68,122.55848786624983,2.081417495737917,-0.23746561191826415,97.84445632444037,-3.021194186475941,1.4151687883874944,0.14353636751435053,
1.7,125.51088513896502,1.9210416340713508,-0.07503820109973369,97.84650002577132,-3.020612060081047,1.4150996376651384,0.1445254506395405,
1.72,128.4979981180846,1.7295411506107794,0.06262513385398162,97.84702554416899,-3.020030129274219,1.4150547473769828,0.14530485225019735,
1.74,131.51982790817172,1.5091862844595798,0.17204675550843004,97.84608650095417,-3.0194586486533392,1.4150308031886858,0.14589950565899684,
1.76,134.57637545999566,1.2629097696061298,0.2501861166162197,97.84374200939813,-3.0189082648921213,1.4150241160508432,0.1463374056101121,
1.78,137.66764151434273,0.9943095476544241,0.29453770828665077,97.84005036723175,-3.018389799452469,1.4150306853022834,0.14664913804976593,
1.8,140.79362653848443,0.7076405357465628,0.3032238087270349,97.83506274531386,-3.017914007370016,1.4150462719419,0.14686733400589247,
1.82,143.9541886409156,0.40777896539863917,0.27506774750076257,97.11030901368483,-3.017491315880096,1.4150664810111777,0.1470260555730282,
1.84,147.1490409269944,0.10023801083906952,0.2096919705735912,96.3706394842767,-3.017131546169264,1.4150868519970519,0.14716012217498514,
1.86,150.37789323282567,-0.20887309436082904,0.10760760930046324,95.62924384360156,-3.0168436300431796,1.4151029560851844,0.1473043825665748,
1.88,153.64045462863695,-0.5129984399553353,-0.029758203378251802,94.88613322829372,-3.016635329933021,1.4151104973617241,0.14749295383245384,
1.9,156.9363819387653,-0.8052587662921711,-0.20004195783850373,93.88118475834638,-3.0165129703657265,1.415105415319517,0.14775844625295212,
1.92,160.265472694358,-1.0786075765945544,-0.39996441865696025,93.85075868405272,-3.0164811912578875,1.4150839857583857,0.14813119417205525,
1.94,163.6277201077088,-1.326112094689412,-0.6254087284026458,93.83802515234139,-3.016542739073341,1.415042915776024,0.1486385228212934,
1.96,167.02312027749147,-1.5410133138950948,-0.8714409509811385,93.82392719501256,-3.016698293156757,1.4149794317300206,0.14930406050956854,
1.98,170.45166841664255,-1.71693136909336,-1.1323840775787635,93.80840569453105,-3.016946337565197,1.4148913572836688,0.1501471162174719,
2.0,173.9133588025002,-1.8481092442622373,-1.401925613619947,93.79141643624682,-3.017283087531803,1.4147771784368797,0.15118214516730272,
2.02,177.40833811372926,-1.9296911010744053,-1.6733278517594004,94.5489425528685,-3.0177024778136254,1.4146360924488937,0.15241832597947985,
2.04,180.93690846017947,-1.9579735021647309,-1.939571090337856,95.32126216745726,-3.0181962184092743,1.4144680376721108,0.1538592732116504,
2.06,184.49937418899773,-1.9304419226806953,-2.193424800276168,96.0925524619033,-3.0187539116658155,1.41427370499504,0.15550288210179897,
2.08,188.0960387726366,-1.8460133438195192,-2.427690647740044,96.8628437506567,-3.0193632345497816,1.4140545287248671,0.15734132398069753,
2.1,191.7272048068651,-1.7052140316556836,-2.635426322192784,97.63219174629872,-3.0200101861905346,1.413812655577116,0.15936120537862383,
2.12,195.39302010748696,-1.510252519443703,-2.8100638205719974,97.62181455569767,-3.020679397096303,1.4135508917455413,0.16154389430717078,
2.14,199.0934745339907,-1.2651027622794164,-2.9457486892316807,97.59356080965934,-3.0213544959151455,1.4132726285157933,0.16386601333733303,
2.16,202.8285537671832,-0.9756065051899836,-3.0377422802408334,97.56424156747246,-3.0220185287656594,1.4129817457240657,0.1663001092870702,
2.18,206.59824265047007,-0.6492848193196397,-3.082554942813509,97.53395852150682,-3.022654417916288,1.4126824963853044,0.1688154774471111,
2.2,210.40252527601146,-0.29512807262503266,-3.0781419005195096,97.50278695997082,-3.02324544683548,1.4123793760398224,0.17137911575763293,
2.22,214.24138507991688,0.07666665176574533,-3.024060332293,97.47076671633572,-3.023775757878276,1.4120769807451576,0.17395678066719494,
2.24,218.1148049435763,0.4550206013564779,-2.9215722519030964,97.4378966765503,-3.024230847688137,1.411779858281541,0.17651411050432955,
2.26,222.02276729780084,0.8283474745735531,-2.773683269605363,97.40413368581376,-3.0245980445523672,1.4114923576388532,0.17901777734672053,
2.28,225.96525422611077,1.1849598228750005,-2.5851100511894978,97.36939618645441,-3.0248669515090176,1.41121848217144,0.1814366249915759,
2.3,229.9422475633118,1.5134892768757982,-2.3621727028816895,97.3335722955321,-3.0250298390012555,1.4109617519209179,0.1837427489959414,
2.32,233.95388397753956,1.8033421932728233,-2.1126894616742398,98.0811685748991,-3.0250819698751283,1.4107250807934297,0.1859124730332251,
2.34,238.0004585677017,2.045142998284551,-1.8455853633687882,98.84614594393535,-3.0250218390463113,1.4105106745003952,0.18792717391865568,
2.36,242.08227010389794,2.2309383280261272,-1.5705227283407757,99.60987823385423,-3.024851324498132,1.4103199520232474,0.1897739301567731,
2.38,246.19961744475438,2.3544961513353724,-1.2976576514923068,100.37222114959631,-3.024575737129191,1.4101534941091471,0.19144596582150136,
2.4,250.35279954738976,2.411561158068524,-1.037255640485121,101.13306123739224,-3.0242037594811424,1.4100110217839326,0.19294286591455254,
2.42,254.54180435451025,2.399925466831369,-0.7992312902661534,100.31718545935723,-3.023747269620846,1.4098914061294927,0.19427055306389704,
2.44,258.766301388012,2.3195726190012507,-0.5928804225459345,99.46056400147148,-3.023221049316107,1.409792709061132,0.19544102822117385,
2.46,263.0259524565811,2.173079927731186,-0.4264539500775728,98.60198321588348,-3.0226423634390467,1.4097122585238584,0.19647185138638998,
2.48,267.3204191800224,1.96547311376798,-0.3066652373707175,97.74153849379744,-3.0220304249951027,1.4096467551578689,0.19738538479021248,
2.5,271.6493629158478,1.7040767311516076,-0.23836884089143376,96.87933511122982,-3.0214057625800486,1.4095924062308616,0.19820783128105615,
2.52,276.0126007975445,1.398358467334309,-0.2243223492110285,96.80600201462686,-3.0207895100836235,1.4095450819410051,0.19896810569530263,
2.54,280.41010948539395,1.0595826654609215,-0.26502374659090866,96.75150027393946,-3.02020264534333,1.409500487850023,0.19969658605461071,
2.56,284.8418690942988,0.7003799247739633,-0.3586630835244462,96.69559251252606,-3.0196652065389444,1.409454345746731,0.20042380246012367,
2.58,289.3078591043803,0.3343970519806951,-0.501166102256425,96.6382762672923,-3.019195515594126,1.4094025758647448,0.20117911538508168,
2.6,293.8080582428967,-0.024184394735151882,-0.6863189271181442,96.57952467277973,-3.018809441906154,1.4093414726918307,0.20198943886597784,
2.62,298.34244437519317,-0.3611988284878993,-0.9059863500911668,96.51929355282726,-3.0185197407558126,1.4092678663914073,0.20287806491517862,
2.64,302.9109944096927,-0.6630900834149412,-1.1504180090878109,96.45753240272417,-3.0183354995918,1.4091792621600399,0.20386364280704083,
2.66,307.5136842214501,-0.9175235841049694,-1.4086341735956034,96.39419729704997,-3.0182617222774635,1.4090739505271306,0.20495936194252454,
2.68,312.150488598092,-1.1139872059444105,-1.6688800595222473,96.32926331743012,-3.018299076349771,1.4089510826575227,0.20617237986796802,
2.7,316.8213812110744,-1.2443459719519676,-1.9191346399310913,96.26273408262396,-3.018443821534594,1.408810706122658,0.20750352780961345,
2.72,321.5264918925845,-1.3033326642853877,-2.1477296200988207,96.99108888081129,-3.0186879305000303,1.4086537581626326,0.20894731599339275,
2.74,326.2661108296313,-1.2889094165943031,-2.3438651084630027,97.74004903103845,-3.019019403271723,1.4084820155792328,0.21049224695306779,
2.76,331.04052999726423,-1.2023476564973683,-2.4980503229422717,98.48007900437443,-3.019422758328,1.4082980039178246,0.21212142138767215,
2.78,335.85003295621385,-1.048283550754737,-2.6026619026026427,99.18863870777294,-3.019879685266244,1.4081048687284716,0.21381342024295058,
2.8,340.6948959541534,-0.8345840570667624,-2.6524016845234897,99.89364582223396,-3.0203698342450496,1.4079062140099337,0.215543430138725,
