Temps,Position en z,Acceleration en x avec g,Acceleration en y avec g,Acceleration en z avec g,Angle phi,Angle theta,Angle psi,
0.0,-0.0,-6.817293572131451e-17,-1.367341682590657,9.729141608459434,-3.01941960595019,1.4311699866353498,-4.985801031981232e-17,
0.02,0.0,-6.817293572131451e-17,-1.367341682590657,9.729141608459434,-3.01941960595019,1.4311699866353498,-4.985801031981232e-17,
0.04,0.0,-6.817293572131451e-17,-1.367341682590657,9.729141608459434,-3.01941960595019,1.4311699866353498,-4.985801031981232e-17,
0.06,0.0006116174909797958,-6.817293570821432e-17,-1.3673416823279068,12.81665637700425,-3.01941960595019,1.4311699866353498,-4.985801031981232e-17,
0.08,0.004434095310257017,-6.817293562634087e-17,-1.3673416806857746,22.85228614819401,-3.01941960595019,1.4311699866353498,-4.985801031981232e-17,
0.1,0.015671511094925407,-6.817293538564722e-17,-1.3673416758581924,34.04601713080474,-3.01941960595019,1.4311699866353498,-4.985801031981232e-17,
0.12,0.04042170568133552,-6.817293485552407e-17,-1.3673416652255346,53.64366850254011,-3.01941960595019,1.4311699866353498,-4.985801031981232e-17,
0.14,0.08584944889048113,-6.817293388250957e-17,-1.3673416457098242,70.22870357913928,-3.01941960595019,1.4311699866353498,-4.985801031981232e-17,
0.16,0.15852766857836173,-6.81729323258185e-17,-1.3673416144873372,86.83851930654022,-3.01941960595019,1.4311699866353498,-4.985801031981232e-17,
0.18,0.2649050019115742,-6.817293004732784e-17,-1.3673415687877466,102.79553304940345,-3.01941960595019,1.4311699866353498,-4.985801031981232e-17,
0.2,0.41117100772825155,-6.817292691446376e-17,-1.3673415059520249,118.09710132047493,-3.01941960595019,1.4311699866353498,-4.985801031981232e-17,
0.22,0.6006499498441601,-6.8172922856024e-17,-1.3673414245520705,119.58925159855823,-3.01941960595019,1.4311699866353498,-4.985801031981232e-17,
0.24,0.8339272359833945,-6.817291785946976e-17,-1.3673413243363939,121.05625144653828,-3.01941960595019,1.4311699866353498,-4.985801031981232e-17,
0.26,1.1115843402215457,-6.817291191234649e-17,-1.3673412050551943,122.5257787052202,-3.01941960595019,1.4311699866353498,-4.985801031981232e-17,
0.28,1.4342511611966697,-6.817290500116236e-17,-1.3673410664378671,124.23723301648167,-3.01941960595019,1.4311699866353498,-4.985801031981232e-17,
0.3,1.8026062013541262,-6.817289711138463e-17,-1.3673409081929295,125.9522649581661,-3.01941960595019,1.4311699866353498,-4.985801031981232e-17,
0.32,2.217155884657606,-6.817288823216619e-17,-1.3673407301028218,126.79509753219494,-3.01941960595019,1.4311699866353498,-4.985801031981232e-17,
0.34,2.6782337297869017,-6.817287835636346e-17,-1.3673405320242646,127.63675437696405,-3.01941960595019,1.4311699866353498,-4.985801031981232e-17,
0.36,3.1861733455528656,-6.817286747683083e-17,-1.36734031381394,128.47986759190204,-3.01941960595019,1.4311699866353498,-4.985801031981232e-17,
0.38,3.7413089183387296,-6.817285558641045e-17,-1.3673400753282823,129.32444097308326,-3.01941960595019,1.4311699866353498,-4.985801031981232e-17,
0.4,4.343975213606457,-6.817284267793193e-17,-1.3673398164234756,130.1704783298096,-3.01941960595019,1.4311699866353498,-4.985801031981232e-17,
0.42,4.994498056233279,-6.817282874441648e-17,-1.367339536959547,130.96991951023656,-3.01941960595019,1.4311699866353498,-4.985801031981232e-17,
0.44,5.693194283055525,-6.81728137790778e-17,-1.367339236800383,131.77055587435655,-3.01941960595019,1.4311699866353498,-4.985801031981232e-17,
0.46,6.440381245054849,-6.817279777511853e-17,-1.3673389158096503,132.57258370726518,-3.01941960595019,1.4311699866353498,-4.985801031981232e-17,
0.48,7.2364006963662115,-6.817278072521866e-17,-1.3673385738405313,133.4964107860384,-3.01941960595019,1.4311699866353498,-4.985801031981232e-17,
0.5,8.081618932936932,-6.817276262153257e-17,-1.3673382107356664,134.4224025672426,-3.01941960595019,1.4311699866353498,-4.985801031981232e-17,
0.52,8.975114535837118,-6.817274348379601e-17,-1.3673378268908953,128.84572377347334,-3.01941960595019,1.4311699866353498,-4.985801031981232e-17,
0.54,9.914670331488784,-6.817272335949854e-17,-1.3673374232587139,123.22664034783905,-3.01941960595019,1.4311699866353498,-4.985801031981232e-17,
0.56,10.898166499994117,-6.817270229404448e-17,-1.3673370007497947,118.14010079649663,-3.01941960595019,1.4311699866353498,-4.985801031981232e-17,
0.58,11.923694983918718,-6.81726803283024e-17,-1.3673365601838368,113.59034047653005,-3.01941960595019,1.4311699866353498,-4.985801031981232e-17,
0.6,12.989453002112562,-6.817265750088601e-17,-1.3673361023353134,109.03567961766522,-3.01941960595019,1.4311699866353498,-4.985801031981232e-17,
0.62,14.094322219976771,-0.010217344471527764,-0.015233402519860384,108.12674553555215,-3.0194197671154317,1.4311697776486403,1.800518168877609e-06,
0.64,15.2382517836769,-0.0626641134280276,-0.025621223520489577,108.97178954875953,-3.019420914772295,1.4311682889229675,1.4626919649213084e-05,
0.66,16.42157911816136,-0.12927207372255523,-0.0506476097525338,109.82867362267284,-3.019424088777819,1.431164169245247,5.012200759553812e-05,
0.68,17.64461928409421,-0.19987255077543892,-0.08145536963602308,110.55991551389334,-3.019430378627667,1.4311559981592419,0.00012052733781929137,
0.7,18.90766225860417,-0.2741707165139384,-0.11858511484357728,111.29008917418241,-3.019440914931373,1.4311422940450644,0.0002386148567164621,
0.72,20.21043705290018,-0.35180119695765,-0.16250307493382324,109.189710437552,-3.0194568595897806,1.431121523504123,0.0004176073928318037,
0.74,21.552107540138415,-0.43210052516712233,-0.2135529997490427,107.06522904673302,-3.0194793912971276,1.4310921164967578,0.0006710496380250884,
0.76,22.93182036825388,-0.5143815841113023,-0.27203603644270613,104.87749214275696,-3.0195096907714243,1.431052481558848,0.0010126784874236495,
0.78,24.348696989437094,-0.5979051723569113,-0.3381708073607804,102.62599328790965,-3.019548925378054,1.4310010215670943,0.0014562886697883004,
0.8,25.80184526864089,-0.6818485361997181,-0.4120828488539365,100.36986344107459,-3.019598232748006,1.4309361506102292,0.0020155888525534727,
0.82,27.290825025061856,-0.765403088745935,-0.4939441987684579,100.4000673680912,-3.0196587048120125,1.4308563100749538,0.002704064531969373,
0.84,28.815652036370306,-0.8479510519115716,-0.5839464493058703,100.44764767207543,-3.019731374904623,1.4307599802122655,0.0035348800448380103,
0.86,30.37634512899399,-0.9286098050132967,-0.6820886537890303,100.49413201577288,-3.0198172010908912,1.430645696237248,0.004520741613101691,
0.88,31.972922596370356,-1.0063366435544068,-0.7882577243474449,100.5394893638492,-3.019917047331822,1.430512066837461,0.005673739784435355,
0.9,33.60540217887895,-1.0800002490700777,-0.9022246314204863,100.58368761655595,-3.020031663605392,1.4303577935635927,0.007005184473229395,
0.92,35.27332167922218,-1.1482651738393534,-1.0233463761209989,98.20671041047828,-3.020161663656618,1.4301816930494835,0.008525415793793727,
0.94,36.97573438368333,-1.209408364534194,-1.1506741841673265,95.80351373010205,-3.0203074979669924,1.4299827260794602,0.01024355569658236,
0.96,38.711687574548094,-1.261993708777457,-1.2833330702846888,93.39609486155695,-3.0204694314535714,1.4297600201630276,0.01216731582986624,
0.98,40.48031666589429,-1.3047302324174506,-1.4203847425133778,91.43819843127004,-3.0206475237333654,1.429512888468094,0.01430283702358378,
1.0,42.28084613245979,-1.336431405437988,-1.5607852691614357,89.48114275657767,-3.020841611229039,1.4292408460340111,0.01665455251962317,
1.02,44.11274473616725,-1.3559774523646548,-1.7035258293956952,88.75715537770118,-3.021051290395926,1.4289436243881657,0.01922506518536424,
1.04,45.975727247320876,-1.3624664154755313,-1.8475624085423703,88.04369405204288,-3.0212759038133252,1.4286211814633052,0.022015065814845577,
1.06,47.86950996933188,-1.3549009349923606,-1.9915438999399064,87.32831094856797,-3.0215145254801468,1.4282737132185641,0.025023236709779278,
1.08,49.79380832179404,-1.3323463226629075,-2.134004735320677,86.61103942538651,-3.0217659475507874,1.4279016641966085,0.028246164348781314,
1.1,51.748336846260344,-1.294019348588071,-2.273385823544171,85.89192174649172,-3.0220286698342638,1.4275057354628349,0.03167827443400103,
1.12,53.73322656689812,-1.2394117919010015,-2.408550487278937,87.27878455362088,-3.0223008930484356,1.4270868880287957,0.0353118058256505,
1.14,55.749111827666894,-1.1683957630689317,-2.53851947034736,89.1044251531039,-3.0225805157272676,1.4266463392050428,0.03913684637734657,
1.16,57.7966459381451,-1.0807138696801135,-2.66171270026523,90.58928773825103,-3.0228651309946195,1.426185562224682,0.043141339623252145,
1.18,59.876413832713396,-0.976138875568727,-2.7763541864767203,92.07095294143319,-3.023152026373962,1.4257062866384216,0.047311083222374095,
1.2,61.98899965756417,-0.8547147301553497,-2.880699450473224,93.55342154852138,-3.0234381891895716,1.4252104948334965,0.05162975959130612,
1.22,64.134553040555,-0.7167230274237054,-2.972389073161591,92.84165494179442,-3.0237203188839605,1.4247004155516036,0.05607899021763216,
1.24,66.31278375873615,-0.5627277910884465,-3.04902785618333,92.10165658235073,-3.0239948504889758,1.4241785145014745,0.06063841067256664,
1.26,68.52339554459874,-0.3939139688263182,-3.1089036272548065,91.3601402913458,-3.024257988032164,1.4236474748345993,0.06528583167235864,
1.28,70.76609130038516,-0.21188287936980152,-3.1504669735295017,90.61719110550877,-3.0245057465448215,1.4231101715184504,0.06999745066980353,
1.3,73.04057313384713,-0.018577963138943415,-3.1723600971524384,89.87288722548804,-3.02473400285741,1.4225696411580766,0.07474810000448512,
1.32,75.34684187052129,0.18375987756450984,-3.1738635288678627,90.64082365408034,-3.0249385537224702,1.4220290476070536,0.07951152927265179,
1.34,77.68520104142668,0.39270146804753475,-3.1544860903543634,91.42903590056261,-3.0251151767983733,1.4214916450963593,0.0842607086825944,
1.36,80.05595790721318,0.6056506361201774,-3.113565923830481,92.21760336445115,-3.0252597009187996,1.4209607399965505,0.08896814034533333,
1.38,82.45941960460182,0.8197960415093289,-3.050721707527946,93.00649823077218,-3.0253680848652578,1.4204396497214864,0.0936061911498455,
1.4,84.89589317403154,1.0321353982691397,-2.965891698922592,93.79567476662119,-3.025436502934395,1.4199316588442707,0.09814744734493891,
1.42,87.3656855896731,1.2395193774713062,-2.8593622805257537,94.58506891175489,-3.025461436178504,1.4194399729273879,0.10256508677366508,
1.44,89.86910379126519,1.4387010948712724,-2.7317919282640033,95.37459872473696,-3.025439767906477,1.4189676706602288,0.10683326398407755,
1.46,92.40645471712139,1.626389966673921,-2.5842296485186083,96.16416573677296,-3.025368881728713,1.4185176549815062,0.1109275027834159,
1.48,94.97804533755685,1.7993087671549541,-2.4181269614545906,96.95365722018788,-3.0252467601321253,1.4180926039442352,0.11482509018276134,
1.5,97.58418268788935,1.9542526722918323,-2.2353425764733075,97.7429493148537,-3.025072081288198,1.4176949221554715,0.11850546511112618,
1.52,100.22502320760198,2.088087261046075,-2.038025116384195,97.769773347947,-3.0248443126296056,1.4173266931035444,0.12195059943969476,
1.54,102.90057049117866,2.197761372424332,-1.8287903507127607,97.78383037343274,-3.024563800460164,1.4169896318845425,0.12514537549091653,
1.56,105.61082578300842,2.2805821705948333,-1.6107802325284977,97.79661224858803,-3.0242318455025443,1.416685042793301,0.12807792500850285,
1.58,108.35579026816549,2.3342239644768177,-1.387473906450614,97.808025722618,-3.0238507630196616,1.4164137824282983,0.13073992420150463,
1.6,111.13546509620011,2.356758645498361,-1.1626378758596128,97.81798978700756,-3.0234239254419437,1.416176228922428,0.1331268402241431,
1.62,113.94985139822428,2.3467063717108942,-0.9402661561038768,97.82643968554146,-3.0229557844251156,1.415972258352061,0.1352381211549923,
1.64,116.79895029646268,2.3030816972492767,-0.7245106875675553,97.83332996416871,-3.0224518694348106,1.415801229328581,0.13707732203286901,
1.66,119.68276290556562,2.2254347142903943,-0.5196028215306026,97.83863627107137,-3.021918760253887,1.4156619766933787,0.13865216026525692,
1.68,122.6012903251305,2.1138872374396374,-0.32976693573077814,97.8423557078699,-3.0213640312295484,1.4155528151239098,0.13997449469927598,
1.7,125.55453362306163,1.9691640217022095,-0.15912752173567823,97.84450561139612,-3.020796165628043,1.4154715533125632,0.1410602238366867,
1.72,128.54249380959735,1.792618826633101,-0.01161138020535063,97.84512077914077,-3.0202244391492963,1.4154155192001054,0.14192910007990647,
1.74,131.5651718020574,1.5862548137977186,0.10915315094575884,97.84424928266215,-3.0196587724719746,1.4153815965306984,0.14260445850767123,
1.76,134.62256838059585,1.3527383168187386,0.1999377398367035,97.84194713692915,-3.019109553644129,1.4153662727462077,0.14311286048207467,
1.78,137.71468413548553,1.0954044772958964,0.25801393666201083,97.8382722376056,-3.0185874321907575,1.41536569795576,0.14348365436303334,
1.8,140.84151940669932,0.81825265136245,0.2812487472148181,97.83327806188318,-3.018103087952849,1.4153757544061134,0.14374845772485284,
1.82,144.00293219403565,0.5259127211320012,0.2681818111864129,97.1084993530625,-3.017666978053268,1.4153921354858359,0.1439405685071731,
1.84,147.198635515054,0.22366408110936598,0.21812414636579275,96.36879333149096,-3.017289064953214,1.415410433237793,0.14409431293929814,
1.86,150.42833914782332,-0.0825873297439797,0.13125515004644675,95.62735780206013,-3.016978536484222,1.4154262334931398,0.14424433367365277,
1.88,153.69175213510266,-0.3864526620066021,0.008658942123851862,94.88421248616062,-3.0167435260566147,1.4154352158042922,0.14442483890293398,
1.9,156.9885313016865,-0.681176835986586,-0.14764861314930477,93.87924264476788,-3.0165908409922197,1.4154332555956306,0.14466883096279226,
1.92,160.31847421627538,-0.959781637748993,-0.3347286634967408,93.84881514750866,-3.0165257091338473,1.4154165257139286,0.14500733390943554,
1.94,163.68157416733467,-1.2153340731024422,-0.5487874779481223,93.83610443186979,-3.016551559595811,1.415381593219209,0.1454686488707409,
1.96,167.07782735659572,-1.4410131741196932,-0.7851954429580593,93.82205508992935,-3.016669835560488,1.4153255100880076,0.14607764819438357,
1.98,170.5072291241784,-1.6303025360423635,-1.0385505044885568,93.80660631507304,-3.0168798494624727,1.4152458949996822,0.1468551278615788,
2.0,173.96977389552129,-1.7772266790170905,-1.3027763480149286,93.78970892223423,-3.0171786899559194,1.4151410031040377,0.1478172405609709,
2.02,177.4656085233481,-1.8766254852374271,-1.5713189755117845,94.54733802703504,-3.0175611884134725,1.4150097806074484,0.1489750333057657,
2.04,180.99503531391272,-1.9244099961501122,-1.8372854997538912,95.31976143699954,-3.018019951166767,1.4148519010657863,0.15033411407949188,
2.06,184.55835882000284,-1.917608164053846,-2.093513142529129,96.09114484640479,-3.0185454521260566,1.4146677838657622,0.1518944457944675,
2.08,188.1558827237633,-1.854612076914878,-2.3328007470106837,96.86150696626791,-3.0191261901524333,1.414458592600547,0.1536502866868734,
2.1,191.78790982942334,-1.7353683442047014,-2.5481262816518284,97.63089305980357,-3.0197489120281165,1.414226211813836,0.155590291403194,
2.12,195.45458814445442,-1.5614677148344063,-2.7327639717694048,97.62051326127064,-3.0203988981142214,1.4139732018607825,0.15769777781908356,
2.14,199.1559076971012,-1.336245499055215,-2.880615973744468,97.5922116765556,-3.0210603071334043,1.4137027321350217,0.15995116077963958,
2.16,202.89185431860622,-1.0649133398104451,-2.986613430743627,97.56279883938241,-3.021716576282848,1.413418491627358,0.16232456506547566,
2.18,206.66241297997,-0.7543986229729831,-3.046859790867746,97.53238030193668,-3.022350864135828,1.4131245798405536,0.16478859795273973,
2.2,210.46756787397155,-0.4131601894402952,-3.0588367013791764,97.50103936244541,-3.0229465239191304,1.4128253813474458,0.16731125900544974,
2.22,214.3073025069951,-0.05094995056130386,-3.0215750411863294,97.46882728127018,-3.0234875939547345,1.4125254276819523,0.16985896093240885,
2.24,218.1815997979211,0.3214913651166065,-2.93577543820755,97.43575661841356,-3.023959290760111,1.412229250934397,0.17239762918031432,
2.26,222.09044218089207,0.6927922593109854,-2.8038677321735825,97.40179867336659,-3.02434848934076,1.4119412339737811,0.1748938427109813,
2.28,226.03381170839594,1.051346451930195,-2.6300013001028666,97.3668855221251,-3.024644174637191,1.411665462598668,0.1773159745470614,
2.3,230.01169015087083,1.385728832712858,-2.419961356110981,97.33091657808374,-3.0248378479453946,1.41140558509892,0.17963528847205706,
2.32,234.02421409206391,1.6851501126317932,-2.181090019774246,98.07840600821453,-3.0249238710100457,1.4111646849547113,0.18182694603041477,
2.34,238.07167852993695,1.9399099929755934,-1.9219159280196143,98.84331791310518,-3.0248997297926743,1.4109451726999118,0.18387087539495384,
2.36,242.15438211033953,2.141622284177041,-1.651798898322538,99.60702482610513,-3.024766213810959,1.4107486999993974,0.1857524747040875,
2.38,246.27262354947194,2.2835248758964077,-1.3807031099096618,100.36937691345636,-3.0245274981614525,1.4105760996413075,0.1874631200750489,
2.4,250.42670165003932,2.3607518567601127,-1.118823737243883,101.1302518618498,-3.0241911175605862,1.4104273546995771,0.1890004521928816,
2.42,254.61660417425261,2.3704260615054586,-0.8761269368983756,100.31442600737415,-3.023767827815524,1.410301598436559,0.19036842861373485,
2.44,258.842000444804,2.311814177358855,-0.6620910018916251,99.45785861355881,-3.023271353065962,1.410197144988264,0.1915771418105599,
2.46,263.1025520808863,2.1867491286461505,-0.48528178426443946,98.59932609263517,-3.0227180040725687,1.4101115546524061,0.19264237584807695,
2.48,267.3979205296382,1.9995157756683475,-0.35284183064966296,97.73891651974643,-3.0221261802219566,1.410041731308989,0.1935849202987612,
2.5,271.7277669986006,1.7567254930979173,-0.2701515454276512,96.8767314247316,-3.021515770437043,1.409984048184522,0.19442967094112054,
2.52,276.0919085087508,1.4671850783859361,-0.24056963932969283,96.80339980099494,-3.020907471101632,1.4099344974496357,0.19520455216725868,
2.54,280.49032164903775,1.1415774012278943,-0.26524197008916356,96.74888629618071,-3.020322045984792,1.4098888577626083,0.1959393054545606,
2.56,284.92298649660563,0.7920472479518852,-0.3430272243467637,96.69295987690333,-3.0197795560844622,1.409842872221863,0.19666420074622323,
2.58,289.3898825281412,0.43187248168910114,-0.4705153266605494,96.63562569088097,-3.019298587471901,1.4097924298304905,0.19740872141502494,
2.6,293.8909885012859,0.07500353672187071,-0.6421249860252796,96.57686415359481,-3.0188955096091954,1.409733742811131,0.1982002778495543,
2.62,298.4262823435778,-0.2644699915995941,-0.8502958359135124,96.516636509282,-3.0185837981462504,1.409663511787479,0.19906300623644757,
2.64,302.9957410540016,-0.5729001233826647,-1.0857702692982236,96.45489462470817,-3.01837345555539,1.4095790710517193,0.2000167070717767,
2.66,307.5993406218064,-0.8376864002046447,-1.3379573817763357,96.39159324964739,-3.0182705604032507,1.4094785067187001,0.20107597358865562,
2.68,312.23705596659806,-1.04787857688191,-1.5953685986949542,96.32670248244256,-3.018276971571926,1.409360741524311,0.20224955372428305,
2.7,316.9088609028834,-1.19474255654023,-1.8461116254499055,96.26021803953441,-3.0183902074450586,1.4092255813406278,0.20353998055986244,
2.72,321.6148854203654,-1.2722713577249087,-2.078496898656408,96.98860959450153,-3.018603513257083,1.4090737199562295,0.20494349656931887,
2.74,326.3554198710434,-1.2775814699988248,-2.2815520103553517,97.73758886930507,-3.018906120662249,1.4089067007073222,0.206450283499828,
2.76,331.1307562606671,-1.211033814572581,-2.445466732091242,98.4769846536977,-3.0192836851647433,1.4087268370587145,0.20804498619200265,
2.78,335.94117815525874,-1.0763315845568118,-2.5621567894695785,99.18547496629157,-3.0197188887724797,1.40853709438445,0.20970751770516735,
2.8,340.7869619041403,-0.8804351324848805,-2.6257366995502096,99.89039986459875,-3.020192185527313,1.408340937503177,0.2114141167803538,
