Temps,Position en z,Acceleration en x avec g,Acceleration en y avec g,Acceleration en z avec g,Angle phi,Angle theta,Angle psi,
0.0,-0.0,-6.817293572131451e-17,-1.367341682590657,9.729141608459434,-3.01941960595019,1.4311699866353498,-4.985801031981232e-17,
0.02,0.0,-6.817293572131451e-17,-1.367341682590657,9.729141608459434,-3.01941960595019,1.4311699866353498,-4.985801031981232e-17,
0.04,0.0,-6.817293572131451e-17,-1.367341682590657,9.729141608459434,-3.01941960595019,1.4311699866353498,-4.985801031981232e-17,
0.06,0.0006116174909797958,-6.817293570821432e-17,-1.3673416823279068,12.81665637700425,-3.01941960595019,1.4311699866353498,-4.985801031981232e-17,
0.08,0.004434095310257017,-6.817293562634087e-17,-1.3673416806857746,22.85228614819401,-3.01941960595019,1.4311699866353498,-4.985801031981232e-17,
0.1,0.015671511094925407,-6.817293538564722e-17,-1.3673416758581924,34.04601713080474,-3.01941960595019,1.4311699866353498,-4.985801031981232e-17,
0.12,0.04042170568133552,-6.817293485552407e-17,-1.3673416652255346,53.64366850254011,-3.01941960595019,1.4311699866353498,-4.985801031981232e-17,
0.14,0.08584944889048113,-6.817293388250957e-17,-1.3673416457098242,70.22870357913928,-3.01941960595019,1.4311699866353498,-4.985801031981232e-17,
0.16,0.15852766857836173,-6.81729323258185e-17,-1.3673416144873372,86.83851930654022,-3.01941960595019,1.4311699866353498,-4.985801031981232e-17,
0.18,0.2649050019115742,-6.817293004732784e-17,-1.3673415687877466,102.79553304940345,-3.01941960595019,1.4311699866353498,-4.985801031981232e-17,
0.2,0.41117100772825155,-6.817292691446376e-17,-1.3673415059520249,118.09710132047493,-3.01941960595019,1.4311699866353498,-4.985801031981232e-17,
0.22,0.6006499498441601,-6.8172922856024e-17,-1.3673414245520705,119.58925159855823,-3.01941960595019,1.4311699866353498,-4.985801031981232e-17,
0.24,0.8339272359833945,-6.817291785946976e-17,-1.3673413243363939,121.05625144653828,-3.01941960595019,1.4311699866353498,-4.985801031981232e-17,
0.26,1.1115843402215457,-6.817291191234649e-17,-1.3673412050551943,122.5257787052202,-3.01941960595019,1.4311699866353498,-4.985801031981232e-17,
0.28,1.4342511611966697,-6.817290500116236e-17,-1.3673410664378671,124.23723301648167,-3.01941960595019,1.4311699866353498,-4.985801031981232e-17,
0.3,1.8026062013541262,-6.817289711138463e-17,-1.3673409081929295,125.9522649581661,-3.01941960595019,1.4311699866353498,-4.985801031981232e-17,
0.32,2.217155884657606,-6.817288823216619e-17,-1.3673407301028218,126.79509753219494,-3.01941960595019,1.4311699866353498,-4.985801031981232e-17,
0.34,2.6782337297869017,-6.817287835636346e-17,-1.3673405320242646,127.63675437696405,-3.01941960595019,1.4311699866353498,-4.985801031981232e-17,
0.36,3.1861733455528656,-6.817286747683083e-17,-1.36734031381394,128.47986759190204,-3.01941960595019,1.4311699866353498,-4.985801031981232e-17,
0.38,3.7413089183387296,-6.817285558641045e-17,-1.3673400753282823,129.32444097308326,-3.01941960595019,1.4311699866353498,-4.985801031981232e-17,
0.4,4.343975213606457,-6.817284267793193e-17,-1.3673398164234756,130.1704783298096,-3.01941960595019,1.4311699866353498,-4.985801031981232e-17,
0.42,4.994498056233279,-6.817282874441648e-17,-1.367339536959547,130.96991951023656,-3.01941960595019,1.4311699866353498,-4.985801031981232e-17,
0.44,5.693194283055525,-6.81728137790778e-17,-1.367339236800383,131.77055587435655,-3.01941960595019,1.4311699866353498,-4.985801031981232e-17,
0.46,6.440381245054849,-6.817279777511853e-17,-1.3673389158096503,132.57258370726518,-3.01941960595019,1.4311699866353498,-4.985801031981232e-17,
0.48,7.2364006963662115,-6.817278072521866e-17,-1.3673385738405313,133.4964107860384,-3.01941960595019,1.4311699866353498,-4.985801031981232e-17,
0.5,8.081618932936932,-6.817276262153257e-17,-1.3673382107356664,134.4224025672426,-3.01941960595019,1.4311699866353498,-4.985801031981232e-17,
0.52,8.975114535837118,-6.817274348379601e-17,-1.3673378268908953,128.84572377347334,-3.01941960595019,1.4311699866353498,-4.985801031981232e-17,
0.54,9.914670331488784,-6.817272335949854e-17,-1.3673374232587139,123.22664034783905,-3.01941960595019,1.4311699866353498,-4.985801031981232e-17,
0.56,10.898166499994117,-6.817270229404448e-17,-1.3673370007497947,118.14010079649663,-3.01941960595019,1.4311699866353498,-4.985801031981232e-17,
0.58,11.923320702384236,-0.009483135042332313,-0.014180608836939168,111.88680738633585,-3.019419755599762,1.431169792581462,1.671866953556163e-06,
0.6,12.987946388501094,-0.058298033563103285,-0.02357988408212848,107.29182826172648,-3.0194208235269357,1.4311684073507807,1.3606562910197426e-05,
0.62,14.091297770390634,-0.12051209980547442,-0.046465386557119695,108.11605638297922,-3.019423782115313,1.4311645677773437,4.6688056107460736e-05,
0.64,15.233708517934456,-0.1867200683858541,-0.07457017965407683,108.97298663928999,-3.019429655175533,1.4311569400721016,0.00011241052825726043,
0.66,16.415518570661675,-0.25670626786726813,-0.10841828195693282,109.82993603027319,-3.0194395111394368,1.4311441262195232,0.0002228242725866813,
0.68,17.63704297221195,-0.33023226929224825,-0.14853141896365996,110.56123712735047,-3.0194544556502145,1.431124670816954,0.0003904778650398369,
0.7,18.898571659994477,-0.40697565103654787,-0.19541522198895106,111.29146662190408,-3.0194756226845128,1.4310970694615883,0.0006283470864207226,
0.72,20.19983358671838,-0.4864543479195078,-0.24945048194462588,109.19113560499379,-3.019504163176246,1.431059780029297,0.000949739009107089,
0.74,21.53999254951412,-0.5678295679157546,-0.3108632112862723,107.06668874129852,-3.019541228222054,1.4310112407548863,0.0013681374902447464,
0.76,22.91819510096257,-0.6502997730861987,-0.37985573572455245,104.87896865058778,-3.0195879530747685,1.4309498870487962,0.0018970595831581624,
0.78,24.33356257941907,-0.7330305230318102,-0.4565396773996412,102.62746444439752,-3.019645440930535,1.430874168353999,0.0025499116223704887,
0.8,25.785202718293295,-0.8151069566187322,-0.5409259465189298,100.37130290713411,-3.0197147458366644,1.4307825659432332,0.0033398372277157764,
0.82,27.272675178100915,-0.8956495746394482,-0.6331073146336456,100.4014455692355,-3.019796856319532,1.4306736094703647,0.004279576108900136,
0.84,28.795995547898958,-0.9740066095775879,-0.7332041307688505,100.44893246659882,-3.019892682549647,1.4305458881810547,0.005381369186557067,
0.86,30.355182443468916,-1.049219524986582,-0.8410989444507142,100.49528892890537,-3.0200030391078134,1.4303980674046586,0.00665681836162826,
0.88,31.95025392593921,-1.1201633992675804,-0.9565528729315784,100.54048257447076,-3.0201286254580126,1.4302289075436267,0.008116724998628505,
0.9,33.58122748219963,-1.185634973288887,-1.0792040935177907,100.58448113814475,-3.0202700054615867,1.4300372837217303,0.00977092303198785,
0.92,35.24764066346265,-1.2442305261409068,-1.2082184542665286,98.20726895982938,-3.0204275845890245,1.4298222081535048,0.011628088870198604,
0.94,36.948546513438124,-1.2941644905067569,-1.3424444251483245,95.80380426033183,-3.020601582551574,1.4295828593471225,0.013695492199255054,
0.96,38.682992064285784,-1.3340030734274895,-1.480857696138523,93.39608881458756,-3.020792011415317,1.429318603684873,0.015978812853889936,
0.98,40.45011246859635,-1.362496832701574,-1.6223881161076787,91.43787346010541,-3.0209986566997657,1.429029012750229,0.01848199464421193,
1.0,42.249131929260805,-1.37853086807681,-1.7658687948005276,89.48048427116044,-3.0212210606178984,1.428713877538452,0.021207126374420283,
1.02,44.079518914297886,-1.3810834414244013,-1.9101953591565561,88.75615807749521,-3.021458506733173,1.4283732207932436,0.02415433921173003,
1.04,45.94098787678049,-1.369376312387037,-2.0542392368493823,88.042363097815,-3.021710007667221,1.4280073043734571,0.027321747473893085,
1.06,47.83325479823207,-1.3425561085028197,-2.1965485857191505,87.32666254384522,-3.021974292437522,1.4276166382076505,0.030705375533581093,
1.08,49.756034774307025,-1.29986234300219,-2.3355714892776906,86.60910139097676,-3.02224979580186,1.4272019879063074,0.034299096017542434,
1.1,51.709042023172366,-1.2407177740002215,-2.4696802996310883,85.88973369129697,-3.0225346509756523,1.4267643794549172,0.038094592752569226,
1.12,53.69240720328926,-1.1648425543763694,-2.5977298103613538,87.27639803422244,-3.0228266865410327,1.4263050992172597,0.04208136388760612,
1.14,55.70676423752848,-1.072336276510196,-2.718749913620516,89.1019030619905,-3.023123426826481,1.4258256870945083,0.04624678487558556,
1.16,57.75276601045345,-0.9631913320037725,-2.8311361335193794,90.58670252642335,-3.0234220930298275,1.4253279328341142,0.05057614296405833,
1.18,59.83099704111488,-0.8374635262697492,-2.933103844059948,92.0683848921198,-3.0237196085325424,1.4248138727530695,0.05505266608119615,
1.2,61.94204106626885,-0.6955003545717079,-3.0229326528009737,93.55095679786068,-3.0240126105423717,1.424285782409141,0.059657585095095035,
1.22,64.08604737399614,-0.5379198621022315,-3.0982909324728753,92.83938248153639,-3.0242974696806666,1.4237461659573825,0.0643702220616423,
1.24,66.26272548108554,-0.3656720839387949,-3.156864795233024,92.09966518324585,-3.02457032246578,1.4231977418452633,0.06916810513312702,
1.26,68.47177888683402,-0.18030459092910928,-3.19709583492321,91.35851581728423,-3.024827113450742,1.4226434187760693,0.07402716595358139,
1.28,70.71291029006731,0.016238131199612232,-3.217625733866968,90.61601312126864,-3.0250636458818425,1.422086265911486,0.0789219845602799,
1.3,72.9858216281085,0.22168996443506955,-3.2173243695535696,89.87222564416943,-3.025275641134549,1.421529478800876,0.08382606837984329,
1.32,75.29051354504432,0.43353196183647624,-3.1957373977909223,90.64073596976031,-3.0254588049911773,1.420976341627308,0.08871216098181971,
1.34,77.62728937973242,0.6491205229588783,-3.152653019212023,91.42956464992598,-3.025608895594028,1.420430187913021,0.09355256399626649,
1.36,79.9964562385644,0.8656566030958215,-3.0877060680120367,92.21877358221109,-3.02572180077585,1.4198943598757572,0.09831946681593981,
1.38,82.39832114542254,1.080162274729307,-3.0008371384038077,93.00831597208973,-3.025793623305343,1.4193721652590836,0.1029852951811229,
1.4,84.83319107181106,1.2895182727551997,-2.8923267701851807,93.79812642782912,-3.0258207718335863,1.4188668319290492,0.10752307698101275,
1.42,87.30137296882218,1.490512169875146,-2.762818879077919,94.58812143905348,-3.025800056157897,1.418381460801653,0.11190682073395637,
1.44,89.8031738003058,1.6798907183144058,-2.6133389194061443,95.37820075757743,-3.0257287851405477,1.4179189777481802,0.11611190155220341,
1.46,92.33890057651035,1.8544151604606633,-2.445305918430765,96.16824968700911,-3.0256048653315157,1.4174820852021772,0.12011544879962391,
1.48,94.9088603873718,2.010918331510246,-2.2605375756398813,96.95814222930575,-3.0254268980686927,1.4170732142635414,0.12389672910044132,
1.5,97.51336043454461,2.1463624039670517,-2.0612476972324036,97.74774497699657,-3.0251942725733656,1.4166944781605435,0.12743751786832896,
1.52,100.15255739190815,2.2578293785144283,-1.8499319527412297,97.77478384870638,-3.0249072534363637,1.4163476273590916,0.13072245713451694,
1.54,102.8264551528919,2.342534008886773,-1.6295301217218703,97.78895913238051,-3.0245670615464793,1.416034005808788,0.1337394041061288,
1.56,105.53505529746968,2.3981126034003446,-1.4034621676536296,97.80176697320681,-3.024175938079958,1.415754513109174,0.13647973282679854,
1.58,108.27835937762978,2.4226149428515473,-1.175439835955384,97.81312305821604,-3.0237371904036006,1.4155095730619005,0.13893858513573623,
1.6,111.05636893543253,2.4145258079560183,-0.9494100676415336,97.82295945473825,-3.0232552179624768,1.4152991091143052,0.14111506724784173,
1.62,113.86908551366375,2.372809739796965,-0.7294886696726359,97.83122781691124,-3.0227355152326383,1.4151225276849893,0.14301238460825985,
1.64,116.71651065835981,2.296951549247975,-0.5198850529052433,97.83790136761026,-3.022184649067661,1.4149787102971272,0.14463790829917086,
1.66,119.59864591262884,2.1869922539083073,-0.32481901056972723,97.84297543503347,-3.0216102081508462,1.4148660153436934,0.14600316717114165,
1.68,122.5154928013612,2.043560519969534,-0.1484307479905031,97.8464664140131,-3.0210207227744523,1.4147822901759344,0.1471237609767539,
1.7,125.4670528066216,1.867899522462615,0.005314340369240722,97.8484091470425,-3.02042555380955,1.4147248940403967,0.1480191910994925,
1.72,128.4533273337272,1.6618888315190872,0.1327243669208424,97.84885283375876,-3.019834750506734,1.4146907321894409,0.14871260698949285,
1.74,131.4743176682464,1.4280604914060033,0.23048106545777747,97.84785573075129,-3.0192588776747167,1.4146763012553771,0.1492304681280883,
1.76,134.530024924388,1.1696079122282983,0.29573902168000965,97.84547902332652,-3.0187088138087734,1.4146777457103952,0.14960212322786337,
1.78,137.6204499854888,0.8903855933425048,0.32622150735041244,97.84178035784974,-3.0181955228629853,1.414690924936457,0.14985931040999334,
1.8,140.74559343754018,0.5948971006398553,0.32031024411782005,97.83680760507865,-3.0177298035479305,1.4147114901062092,0.15003558425626645,
1.82,143.90531348886282,0.28825725675916297,0.2771148389772205,97.11208492076962,-3.0173220202889808,1.4147349697279339,0.1501656782750821,
1.84,147.09932332368027,-0.023796024691543294,0.19656981405207613,96.37245509260569,-3.016981819446904,1.4147568627006317,0.1502848112730397,
1.86,150.32733282722444,-0.33496092704049296,0.07951641415158105,95.63109936300259,-3.016717843480166,1.4147727374288985,0.15042794510340216,
1.88,153.58905108851008,-0.6385269222797317,-0.0722789066928851,94.88802028621406,-3.016537451665691,1.4147783340232567,0.15062901548293264,
1.9,156.8841349232285,-0.9275048924039604,-0.25611068285620686,93.88308717839314,-3.0164464556533956,1.4147696668855416,0.15092015507702625,
1.92,160.21238181721046,-1.1947963091320952,-0.4683672236682304,93.85265431865905,-3.0164488803877285,1.4147431246836886,0.15133092959404915,
1.94,163.5737848993139,-1.4334863387801875,-0.7046183301063995,93.83988846281919,-3.0165467665607895,1.4146955632807339,0.1518876179237877,
1.96,166.96834015879216,-1.636897157684186,-0.9596370950754805,93.82573215682446,-3.0167400113019287,1.414624390709482,0.15261254411370362,
1.98,170.39604267608425,-1.7988057361476437,-1.2274846669173782,93.81012910561218,-3.017026257370623,1.4145276412555685,0.15352348175216798,
2.0,173.85688657628293,-1.9136941467544784,-1.5016271547967155,93.79304114621993,-3.017400839689877,1.4144040355624747,0.15463315345344886,
2.02,177.35101836086727,-1.9770307477035232,-1.7751594544991733,94.55046033392216,-3.0178567959440845,1.4142530237445476,0.15594884872070697,
2.04,180.87873994122862,-1.985515661882886,-2.0409525501464145,95.32267573340204,-3.018384945975261,1.4140748086684274,0.1574721832216232,
2.06,184.4403554581792,-1.9371074347557344,-2.291726711459589,96.09387628636374,-3.0189740333897213,1.4138703503170127,0.15919899483734593,
2.08,188.03616817516772,-1.8312597270258568,-2.5203057665079087,96.86410377932816,-3.0196109325399414,1.4136413491985662,0.16111939422512345,
2.1,191.6664804815565,-1.6690853356003728,-2.7198467834632156,97.63342383846711,-3.0202809202508965,1.413390207667384,0.16321798163091336,
2.12,195.33144000508798,-1.453411760167606,-2.883959050887923,97.62306164985951,-3.020968008013275,1.4131199693554302,0.165474231837918,
2.14,199.03103644155402,-1.1888463697256284,-3.007050089074261,97.59486920005322,-3.0216553299664186,1.412834237392243,0.16786304528334617,
2.16,202.76525532744708,-0.881848623462473,-3.0847279918118105,97.56565675333681,-3.0223255805200173,1.4125370710522152,0.17035547261475703,
2.18,206.53408138557387,-0.5405141110687379,-3.113923650990756,97.5355208181039,-3.022961487748448,1.412232864444546,0.17291958821898887,
2.2,210.33749861512786,-0.1743394575160357,-3.093075714782855,97.50452749805676,-3.0235463090477994,1.4119262110450301,0.17552148597280157,
2.22,214.17549039000207,0.20606341249844584,-3.0222728952313527,97.47270431746637,-3.024064334829995,1.411621758220601,0.17812636692892442,
2.24,218.04803956228528,0.5893117099289711,-2.903338552500373,97.44003600291494,-3.0245013849500424,1.411324056496174,0.1806996830370813,
2.26,221.95512856748596,0.9636403173410417,-2.73984833486731,97.40646492356159,-3.024845281842718,1.4110374087595723,0.18320829655527016,
2.28,225.89673952772708,1.317316829552261,-2.537074644307799,97.37189632625034,-3.0250862840356896,1.4107657248572891,0.1856216119238787,
2.3,229.872854349003,1.6390643049605502,-2.301855308404471,97.33620788750443,-3.0252174638454687,1.4105123870808787,0.18791263581237297,
2.32,233.88360978947114,1.9185162885982425,-2.0424623684228504,98.08389971271203,-3.0252350121853877,1.410280132172462,0.19005891984807316,
2.34,237.9293010531987,2.1466488407982127,-1.7681908772021386,98.84893083927405,-3.0251384531754293,1.410070955623081,0.1920433393262677,
2.36,242.0102270373054,2.3159630732289807,-1.4889763298146088,99.61267767989881,-3.0249307659952027,1.4098860407275866,0.19385468509701412,
2.38,246.1266867440259,2.4207729416735155,-1.21513561023706,100.37500257486606,-3.0246184019370417,1.4097257156994525,0.19548804214075755,
2.4,250.27897928440385,2.457443686849267,-0.9569730460464414,101.13580169838752,-3.0242111874192874,1.4095894415557375,0.19694493329499263,
2.42,254.46709277978806,2.424440990968847,-0.7243210713544967,100.31987299173387,-3.023722110120973,1.409475831695381,0.19823322073708344,
2.44,258.69069694814283,2.322464230742261,-0.5262646946208742,99.46319745747574,-3.0231669881960674,1.4093827026014571,0.19936677049331603,
2.46,262.9494537830628,2.1548283436635516,-0.3707154997733023,98.60457085982415,-3.022564011228006,1.4093071586788029,0.20036485918014416,
2.48,267.2430250711929,1.927288069452997,-0.263938379590856,97.74409504448158,-3.0219331690513385,1.4092457078101626,0.20125134911394255,
2.5,271.5710723132189,1.6478647624729015,-0.21024870220017508,96.88187799881584,-3.0212955868505595,1.4091944030298111,0.20205366760442667,
2.52,275.9334127474949,1.3266663969031365,-0.21179620364041277,96.80854757662482,-3.0206727880511344,1.4091490050489477,0.20280163091033576,
2.54,280.3300230974637,0.9755144449336042,-0.26843090643662076,96.75406039041265,-3.0200859133891185,1.4091051590595864,0.20352616201546547,
2.56,284.7608835076116,0.6074977831939207,-0.37768043707491317,96.6981721416446,-3.019554925762538,1.4090585779769902,0.20425796093341272,
2.58,289.2259734536688,0.23660168055441183,-0.5348185716138153,96.6408725828305,-3.01909783125385,1.4090052248853555,0.20502618011545223,
2.6,293.7252716253648,-0.12279405218223183,-0.7330164393631746,96.58212780933272,-3.018729950407868,1.4089414868452543,0.20585716077060354,
2.62,298.2587558196876,-0.456482253639074,-0.9635861564083751,96.5218888300344,-3.018463274360203,1.408864332109543,0.2067732860322149,
2.64,302.82640284957074,-0.751033381280557,-1.2163104451446003,96.46010363608787,-3.018305938734874,1.4087714431963645,0.20779200362528022,
2.66,307.4281884723894,-0.9944124789484208,-1.479849301795821,96.39673059074282,-3.0182618445736713,1.4086613190490518,0.2089250651633247,
2.68,312.0640873418887,-1.1765764819238933,-1.7422120054320762,96.3317506381493,-3.018330449979485,1.4085333406615852,0.21017802153091925,
2.7,316.7340729862281,-1.2900158007654055,-1.9912797657164112,96.26517594160212,-3.018506748857156,1.4083877960393354,0.21155000408990507,
2.72,321.4382750812577,-1.330222644619176,-2.215436099306002,96.99349567654126,-3.0187814454504043,1.4082258619982289,0.21303381087626835,
2.74,326.17698365152336,-1.29601614124931,-2.404082581086231,97.74244061134486,-3.0191413234295945,1.4080495424984611,0.21461630235450652,
2.76,330.95049064292186,-1.1895803579470376,-2.548074198705121,98.4830981261823,-3.0195697899465803,1.4078615667209098,0.216279087583268,
2.78,335.75907961355284,-1.0164766148391269,-2.6402709764018537,99.19173295701984,-3.0200475771060784,1.4076652502087093,0.21799948080129436,
